"Serie 1: Tiempo (s)","Serie 1: Caudal (L/s)","Serie 1: Volumen (L)","Serie 2: Tiempo (s)","Serie 2: Caudal (L/s)","Serie 2: Volumen (L)","Serie 3: Tiempo (s)","Serie 3: Caudal (L/s)","Serie 3: Volumen (L)","Serie 4: Tiempo (s)","Serie 4: Caudal (L/s)","Serie 4: Volumen (L)","Serie 5: Tiempo (s)","Serie 5: Caudal (L/s)","Serie 5: Volumen (L)","Serie 6: Tiempo (s)","Serie 6: Caudal (L/s)","Serie 6: Volumen (L)","Serie 7: Tiempo (s)","Serie 7: Caudal (L/s)","Serie 7: Volumen (L)","Serie 8: Tiempo (s)","Serie 8: Caudal (L/s)","Serie 8: Volumen (L)","Serie 9: Tiempo (s)","Serie 9: Caudal (L/s)","Serie 9: Volumen (L)","Serie 10: Tiempo (s)","Serie 10: Caudal (L/s)","Serie 10: Volumen (L)","Serie 11: Tiempo (s)","Serie 11: Caudal (L/s)","Serie 11: Volumen (L)","Serie 12: Tiempo (s)","Serie 12: Caudal (L/s)","Serie 12: Volumen (L)","Serie 13: Tiempo (s)","Serie 13: Caudal (L/s)","Serie 13: Volumen (L)"
0,-0.061294127634,0,0,-0.0714107050298,0,0,-0.606399121432,0,0,-0.295165593314,0,0,-0.0422511584184,0,0,-0.061294127634,0,0,-0.188048891476,0,0,-0.0321345810225,0,0,0.47309919598,0,0,-0.0321345810225,0,0,-1.44250448856,0,0,-0.878356525543,0,0,-0.0321345810225,-0
0.02,-0.061294127634,0.00122588255268,0.02,-0.0517726430262,0.00123183348056,0.02,-0.557601512817,0.0116400063425,0.02,-0.27552753131,0.00570693124624,0.02,-0.0130916118069,0.000553427702253,0.02,-0.0517726430262,0.0011306677066,0.02,-0.197570376084,0.00385619267559,0.02,-0.0321345810225,0.000642691620451,0.02,0.521896804596,-0.00994996000576,0.01,-0.0321345810225,0.000321345810225,0.01,-1.36454733333,0.0140352591094,0.01,-0.868835040936,0.0087359578324,0.01,-0.0321345810225,0.000321345810225
0.04,-0.061294127634,0.00245176510536,0.04,-0.0517726430262,0.00226728634108,0.04,-0.460006295587,0.0218160844265,0.04,-0.236846500091,0.0108306715603,0.04,-0.0130916118069,0.00081525993839,0.04,-0.061294127634,0.0022613354132,0.04,-0.226729922695,0.00809919566338,0.04,-0.0517726430262,0.00148176386094,0.04,0.580215897819,-0.0209710870299,0.02,-0.0517726430262,0.000740881930469,0.02,-1.36454733333,0.0276807324428,0.02,-0.878356525543,0.0174719156648,0.02,-0.0321345810225,0.00064269162045
0.06,-0.0517726430262,0.00358243281196,0.06,-0.061294127634,0.00339795404769,0.06,-0.285049015918,0.0292666375416,0.06,-0.178527406868,0.0149844106298,0.06,-0.0321345810225,0.00126752186668,0.06,-0.0714107050298,0.00358838373984,0.06,-0.27552753131,0.0131217702034,0.06,-0.0714107050298,0.0027135973415,0.06,0.599853959822,-0.0327717856063,0.03,-0.0714107050298,0.00135679867075,0.03,-1.33538778672,0.041180408043,0.03,-0.897994587547,0.0263536712302,0.03,-0.0321345810225,0.000964037430675
0.08,-0.0517726430262,0.00461788567249,0.08,-0.061294127634,0.00462383660037,0.08,-0.120208313645,0.0333192108372,0.08,-0.120208313645,0.017971767835,0.08,-0.0321345810225,0.00191021348714,0.08,-0.0714107050298,0.00501659784044,0.08,-0.304687077922,0.0189239162958,0.08,-0.0714107050298,0.0041418114421,0.08,0.638534991042,-0.0451556751149,0.04,-0.0714107050298,0.00207090572105,0.04,-1.31574972472,0.0544360956002,0.04,-0.878356525543,0.0352354267957,0.04,-0.0321345810225,0.0012853832409
0.1,-0.061294127634,0.00574855337909,0.1,-0.0517726430262,0.00575450430697,0.1,0.0357059968082,0.0341642340056,0.1,-0.061294127634,0.0197867922478,0.1,-0.0321345810225,0.00255290510759,0.1,-0.061294127634,0.00634364616708,0.1,-0.304687077922,0.0250176578542,0.1,-0.0714107050298,0.00557002554269,0.1,0.531418289203,-0.0568552079174,0.05,-0.0809321896377,0.00283262019439,0.05,-1.2865901781,0.0674477951143,0.05,-0.897994587547,0.0441171823612,0.05,-0.0321345810225,0.00160672905112
0.12,-0.061294127634,0.00697443593177,0.12,-0.0517726430262,0.00678995716749,0.12,0.171982245258,0.0320873515849,0.12,-0.0130916118069,0.0205306496422,0.12,-0.0226130964147,0.00310038188196,0.12,-0.061294127634,0.00756952871976,0.12,-0.295165593314,0.0310161845665,0.12,-0.0714107050298,0.00699823964329,0.12,0.454056226765,-0.0667099530771,0.06,-0.0910487670335,0.00369252497774,0.06,-1.2770686935,0.0802660894723,0.06,-0.907516072155,0.0531447356597,0.06,-0.0321345810225,0.00192807486135
0.14,-0.061294127634,0.00820031848445,0.14,-0.0517726430262,0.00782541002802,0.14,0.230301338481,0.0280645157475,0.14,0.0261845122004,0.0203997206382,0.14,-0.0226130964147,0.00355264381025,0.14,-0.061294127634,0.00879541127244,0.14,-0.255889469307,0.0365267351927,0.14,-0.061294127634,0.00832528796993,0.14,0.483215773376,-0.0760826730785,0.07,-0.100570251641,0.00465062007112,0.07,-1.25743063149,0.0929385860972,0.07,-0.897994587547,0.0621722889582,0.07,-0.0321345810225,0.00224942067157
0.16,-0.061294127634,0.00942620103713,0.16,-0.0422511584184,0.00876564804246,0.16,0.239822823089,0.0233632741318,0.16,0.0160679348046,0.0199771961682,0.16,-0.0321345810225,0.00410012058463,0.16,-0.0517726430262,0.00992607897904,0.16,-0.246367984699,0.0415493097328,0.16,-0.061294127634,0.00955117052261,0.16,0.551056351207,-0.0864253943243,0.08,-0.100570251641,0.00565632258753,0.08,-1.24790914688,0.105465284989,0.08,-0.878356525543,0.0710540445236,0.08,-0.0321345810225,0.0025707664818
0.18,-0.0517726430262,0.0105568687437,0.18,-0.0517726430262,0.00970588605691,0.18,0.210663276477,0.0188584131362,0.18,0.00654645019677,0.0197510523182,0.18,-0.0321345810225,0.00474281220508,0.18,-0.0517726430262,0.0109615318396,0.18,-0.246367984699,0.0464766694268,0.18,-0.0517726430262,0.0106818382292,0.18,0.638534991042,-0.0983213077468,0.09,-0.110091736249,0.00670963252698,0.09,-1.26754720889,0.118042566768,0.09,-0.917037556763,0.0800310149352,0.09,-0.0321345810225,0.00289211229202
0.2,-0.061294127634,0.0116875364503,0.2,-0.0517726430262,0.0107413389174,0.2,0.181503729866,0.0149367430728,0.2,-0.0321345810225,0.0200069336264,0.2,-0.0321345810225,0.00538550382553,0.2,-0.061294127634,0.0120921995462,0.2,-0.266006046702,0.0516004097408,0.2,-0.0422511584184,0.0116220762437,0.2,0.696854084264,-0.1116751985,0.1,-0.120208313645,0.00786113277645,0.1,-1.22827108488,0.130521658237,0.1,-0.887878010151,0.0890555927697,0.1,-0.0321345810225,0.00321345810225
0.22,-0.0714107050298,0.013014584777,0.22,-0.0517726430262,0.011776791778,0.22,0.142822698646,0.0116934787876,0.22,-0.0321345810225,0.0206496252469,0.22,-0.0226130964147,0.0059329805999,0.22,-0.061294127634,0.0133180820988,0.22,-0.285049015918,0.057110960367,0.22,-0.0321345810225,0.0123659336381,0.22,0.726013630876,-0.125903875651,0.11,-0.129729798253,0.00911082333594,0.11,-1.22827108488,0.142804369086,0.11,-0.897994587547,0.0979849557582,0.11,-0.0321345810225,0.00353480391247
0.24,-0.061294127634,0.0143416331036,0.24,-0.061294127634,0.0129074594846,0.24,0.103546574639,0.00922978605478,0.24,-0.061294127634,0.0215839123334,0.24,-0.0321345810225,0.00648045737427,0.24,-0.168410829472,0.0156151316699,0.24,-0.324325139925,0.0632047019254,0.24,-0.0130916118069,0.0128181955664,0.24,0.755173177487,-0.140715743735,0.12,-0.139251282861,0.0104557287415,0.12,-1.18959005366,0.154893674778,0.12,-0.878356525543,0.106866711324,0.12,-0.0321345810225,0.0038561497227
0.26,-0.061294127634,0.0155675156563,0.26,-0.0422511584184,0.0139429123451,0.26,0.0743870280276,0.00745045002812,0.26,-0.0714107050298,0.0229109606601,0.26,-0.0321345810225,0.00712314899472,0.26,-0.217208438087,0.0194713243455,0.26,-0.353484686537,0.06998280019,0.26,0.00654645019677,0.0128836471825,0.26,0.81349227071,-0.156402398217,0.13,-0.139251282861,0.0118482415701,0.13,-1.14079244505,0.166545587272,0.13,-0.878356525543,0.115650276579,0.13,-0.0321345810225,0.00417749553292
0.28,-0.061294127634,0.016793398209,0.28,-0.061294127634,0.0149783652056,0.28,0.0743870280276,0.00596270946757,0.28,-0.100570251641,0.0246307702268,0.28,-0.0321345810225,0.00776584061517,0.28,-0.207686953479,0.0237202782612,0.28,-0.372527655752,0.0772429236129,0.28,0.00654645019677,0.0127527181785,0.28,0.911087487941,-0.173648195803,0.14,-0.149367860256,0.0132913372857,0.14,-1.11163289844,0.177807713989,0.14,-0.868835040936,0.124386234412,0.14,-0.0226130964147,0.00445123392011
0.3,-0.061294127634,0.0180192807617,0.3,-0.0422511584184,0.0160138180661,0.3,0.0357059968082,0.00486177921921,0.3,-0.0809321896377,0.0264457946396,0.3,-0.0422511584184,0.00850969800958,0.3,-0.197570376084,0.0277728515568,0.3,-0.392165717756,0.084889857348,0.3,0.00654645019677,0.0126217891746,0.3,0.978928065771,-0.192548351341,0.15,-0.158889344864,0.0148326233113,0.15,-1.06343038261,0.188683030395,0.15,-0.849196978932,0.132976394511,0.15,-0.0130916118069,0.00462975746122
0.32,-0.061294127634,0.0192451633143,0.32,-0.0517726430262,0.0169540560806,0.32,-0.0130916118069,0.0046356353692,0.32,-0.0321345810225,0.0275764623462,0.32,-0.0321345810225,0.00925355540399,0.32,-0.188048891476,0.0316290442324,0.32,-0.440963326371,0.0932211477893,0.32,-0.0130916118069,0.0126872407907,0.32,1.02772567439,-0.212614888742,0.16,-0.168410829472,0.016469124183,0.16,-1.0241542586,0.199120953601,0.16,-0.829558916928,0.14137017399,0.16,-0.00297503441107,0.00471009069231
0.34,-0.061294127634,0.020471045867,0.34,-0.0517726430262,0.0179895089411,0.34,0.0845036054234,0.00392151543303,0.34,0.0160679348046,0.0277371288084,0.34,-0.0321345810225,0.00989624702444,0.34,-0.178527406868,0.0352948072158,0.34,-0.470122872983,0.102332009783,0.34,-0.0226130964147,0.0130442878729,0.34,1.08604476761,-0.233752593162,0.17,-0.158889344864,0.0181056250547,0.17,-1.01463277399,0.209314888764,0.17,-0.810515947713,0.149570548313,0.17,0.00654645019677,0.00469223361338
0.36,-0.0517726430262,0.0216017135736,0.36,-0.0517726430262,0.0190249618016,0.36,0.0845036054234,0.00223144332456,0.36,0.0553440588119,0.0270230088722,0.36,-0.0321345810225,0.0105389386449,0.36,-0.168410829472,0.0387641895792,0.36,-0.479644357591,0.111829682089,0.36,-0.0321345810225,0.0135917646473,0.36,1.13424728344,-0.255955513673,0.18,-0.149367860256,0.0196469110803,0.18,-0.975951742774,0.219267811347,0.18,-0.810515947713,0.15767570779,0.18,-0.00297503441107,0.00467437653445
0.38,-0.061294127634,0.0227323812802,0.38,-0.0517726430262,0.0200604146621,0.38,-0.0321345810225,0.00170775308055,0.38,0.0743870280276,0.0257256980038,0.38,-0.0226130964147,0.0110864154193,0.38,-0.168410829472,0.0421324061687,0.38,-0.489165842198,0.121517784086,0.38,-0.0517726430262,0.0144308368878,0.38,1.15388534544,-0.278836839961,0.19,-0.149367860256,0.0211405896828,0.19,-0.975951742774,0.229027328775,0.19,-0.771239823705,0.165584486648,0.19,0.00654645019677,0.00465651945552
0.4,-0.061294127634,0.0239582638329,0.4,-0.0517726430262,0.0210958675227,0.4,-0.110091736249,0.00313001625327,0.4,0.0845036054234,0.0241367916693,0.4,-0.0321345810225,0.0116338921936,0.4,-0.158889344864,0.045405407912,0.4,-0.489165842198,0.13130110093,0.4,-0.0422511584184,0.0153710749022,0.4,1.17352340744,-0.30211092749,0.2,-0.149367860256,0.0226342682854,0.2,-0.965835165378,0.238736263316,0.2,-0.75219685449,0.173201670039,0.2,0.00654645019677,0.00459105495356
0.42,-0.061294127634,0.0251841463856,0.42,-0.0517726430262,0.0221313203832,0.42,-0.120208313645,0.00543301675221,0.42,0.0553440588119,0.0227383150269,0.42,-0.0321345810225,0.0122765838141,0.42,-0.149367860256,0.0484879799632,0.42,-0.508803904202,0.141280798394,0.42,-0.0321345810225,0.0161149322966,0.42,1.20268295406,-0.325872991105,0.21,-0.149367860256,0.024127946888,0.21,-0.95631368077,0.248347007547,0.21,-0.712920730482,0.180527257963,0.21,0.00654645019677,0.00452559045159
0.44,-0.061294127634,0.0264100289383,0.44,-0.0517726430262,0.0231667732437,0.44,-0.0910487670335,0.007545587559,0.44,0.00654645019677,0.0221194099369,0.44,-0.0321345810225,0.0129192754345,0.44,-0.139251282861,0.0513741713944,0.44,-0.557601512817,0.151944852565,0.44,-0.0321345810225,0.0167576239171,0.44,1.19256637666,-0.349825484412,0.22,-0.149367860256,0.0256216254905,0.22,-0.927154134159,0.257764346621,0.22,-0.625442090648,0.187219072069,0.22,0.0160679348046,0.00441251852658
0.46,-0.0517726430262,0.0275406966449,0.46,-0.0517726430262,0.0242022261042,0.46,-0.139251282861,0.00984858805794,0.46,-0.0517726430262,0.0225716718652,0.46,-0.0321345810225,0.013561967055,0.46,-0.158889344864,0.0543555776717,0.46,-0.567122997425,0.163192097667,0.46,-0.0714107050298,0.0177930767776,0.46,1.21220443866,-0.373873192566,0.23,-0.149367860256,0.0271153040931,0.23,-0.907516072155,0.266937697653,0.23,-0.567122997425,0.193181897509,0.23,0.0357059968082,0.00415364886852
0.48,-0.061294127634,0.0286713643515,0.48,-0.0517726430262,0.0252376789648,0.48,-0.226729922695,0.0135084001135,0.48,-0.0910487670335,0.0239998859657,0.48,-0.0226130964147,0.0141094438294,0.48,-0.168410829472,0.057628579415,0.48,-0.577239574821,0.17463572339,0.48,-0.120208313645,0.0197092669643,0.48,1.27052353189,-0.398700472271,0.24,-0.158889344864,0.0286565901187,0.24,-0.897994587547,0.275965250951,0.24,-0.460006295587,0.198317543974,0.24,0.0452274814161,0.0037489814774
0.5,-0.061294127634,0.0298972469041,0.5,-0.0517726430262,0.0262731318253,0.5,-0.333846624533,0.0191141655858,0.5,-0.0809321896377,0.0257196955325,0.5,-0.0321345810225,0.0146569206037,0.5,-0.188048891476,0.0611931766245,0.5,-0.586761059429,0.186275729732,0.5,-0.168410829472,0.0225954583955,0.5,1.28064010928,-0.424212108683,0.25,-0.178527406868,0.0303436738774,0.25,-0.887878010151,0.28489461394,0.25,-0.295165593314,0.202093403419,0.25,0.0452274814161,0.00329670666323
0.52,-0.061294127634,0.0311231294568,0.52,-0.061294127634,0.0274037995319,0.52,-0.440963326371,0.0268622650948,0.52,-0.0422511584184,0.026951529013,0.52,-0.0321345810225,0.0152996122242,0.52,-0.207686953479,0.0651505350741,0.52,-0.586761059429,0.198010950921,0.52,-0.197570376084,0.0262552704511,0.52,1.32884262511,-0.450306936027,0.26,-0.188048891476,0.0321765553691,0.26,-0.868835040936,0.293678179195,0.26,-0.120208313645,0.204170272954,0.26,0.0553440588119,0.00279384896209
0.54,-0.061294127634,0.0323490120095,0.54,-0.0517726430262,0.0285344672385,0.54,-0.460006295587,0.0358719613144,0.54,-0.00297503441107,0.0274037909413,0.54,-0.0321345810225,0.0159423038446,0.54,-0.217208438087,0.0693994889897,0.54,-0.577239574821,0.209650957263,0.54,-0.226729922695,0.0304982734389,0.54,1.39727829573,-0.477568145235,0.27,-0.197570376084,0.0341046517069,0.27,-0.839675494324,0.302220731872,0.27,0.0648655434197,0.204446986805,0.27,0.0553440588119,0.00224040837398
0.56,-0.061294127634,0.0335748945622,0.56,-0.0517726430262,0.029569920099,0.56,-0.548080028209,0.0459528245524,0.56,0.0452274814161,0.0269812664713,0.56,-0.0422511584184,0.016686161239,0.56,-0.226729922695,0.0738388725976,0.56,-0.577239574821,0.221195748759,0.56,-0.236846500091,0.0351340376667,0.56,1.41632126494,-0.505704140842,0.28,-0.217208438087,0.0361785457777,0.28,-0.839675494324,0.310617486815,0.28,0.259460885092,0.202825354662,0.28,0.0648655434197,0.00163936036282
0.58,-0.061294127634,0.0348007771149,0.58,-0.0517726430262,0.0306053729595,0.58,-0.712920730482,0.0585628321393,0.58,0.0845036054234,0.0256839556029,0.58,-0.0422511584184,0.0175311844074,0.58,-0.236846500091,0.0784746368254,0.58,-0.567122997425,0.232639374482,0.58,-0.236846500091,0.0398709676685,0.58,1.48475693556,-0.534714922847,0.29,-0.226729922695,0.0383982375816,0.29,-0.839675494324,0.319014241758,0.29,0.40525861815,0.199501757146,0.29,0.0648655434197,0.000990704928621
0.6,-0.061294127634,0.0360266596676,0.6,-0.0422511584184,0.031545610974,0.6,-0.965835165378,0.0753503910979,0.6,0.0845036054234,0.0239938834944,0.6,-0.0321345810225,0.0182750418018,0.6,-0.226729922695,0.0831104010533,0.6,-0.577239574821,0.244083000204,0.6,-0.217208438087,0.0444115170503,0.6,1.42643784234,-0.563826870626,0.3,-0.246367984699,0.0407637271186,0.3,-0.849196978932,0.327458604124,0.3,0.512375319988,0.194913587455,0.3,0.0743870280276,0.000294442071384
0.62,-0.061294127634,0.0372525422202,0.62,-0.0422511584184,0.0323906341424,0.62,-1.33538778672,0.0983626206189,0.62,0.0452274814161,0.022696572626,0.62,-0.0226130964147,0.0188225185762,0.62,-0.226729922695,0.0876449995072,0.62,-0.577239574821,0.255627791701,0.62,-0.207686953479,0.048660470966,0.62,1.36811874912,-0.59177243654,0.31,-0.255889469307,0.0432750143886,0.31,-0.820037432321,0.335804776181,0.31,0.589737382426,0.189403023943,0.31,0.0648655434197,-0.000401820785852
0.64,-0.061294127634,0.0384784247729,0.64,-0.0517726430262,0.0333308721568,0.64,-1.69541892345,0.128670687721,0.64,-0.0130916118069,0.0223752139299,0.64,-0.0226130964147,0.0192747805045,0.64,-0.226729922695,0.0921795979611,0.64,-0.596282544037,0.267363012889,0.64,-0.197570376084,0.0527130442616,0.64,1.38716171833,-0.619325241215,0.32,-0.266006046702,0.0458844919687,0.32,-0.839675494324,0.344103340814,0.32,0.648056475649,0.183214054653,0.32,0.0845036054234,-0.00114866653007
0.66,-0.0517726430262,0.0396090924795,0.66,-0.0422511584184,0.0342711101712,0.66,-1.93821678095,0.165007044765,0.66,-0.0321345810225,0.0228274758582,0.66,-0.0321345810225,0.0198222572789,0.66,-0.226729922695,0.096714196415,0.66,-0.625442090648,0.279580259236,0.66,-0.217208438087,0.0568608324033,0.66,1.38716171833,-0.647068475581,0.33,-0.285049015918,0.0486397672818,0.33,-0.820037432321,0.352401905447,0.33,0.696854084264,0.176489501853,0.33,0.0845036054234,-0.0019937025843
0.68,-0.061294127634,0.0407397601861,0.68,-0.0517726430262,0.0352113481857,0.68,-2.23992882446,0.206788500819,0.68,-0.0422511584184,0.0235713332526,0.68,-0.0321345810225,0.0204649488993,0.68,-0.207686953479,0.101058365177,0.68,-0.61592060604,0.291993886203,0.68,-0.226729922695,0.0613002160112,0.68,1.41632126494,-0.675103305414,0.34,-0.295165593314,0.0515408403279,0.34,-0.829558916928,0.360649887193,0.34,0.726013630876,0.169375163278,0.34,0.113663152035,-0.00298453637159
0.7,-0.061294127634,0.0419656427388,0.7,-0.061294127634,0.0363420158923,0.7,-2.35656701091,0.252753459173,0.7,-0.0321345810225,0.024315190647,0.7,-0.061294127634,0.0213992359859,0.7,-0.197570376084,0.105110938472,0.7,-0.606399121432,0.304217083478,0.7,-0.226729922695,0.0658348144651,0.7,1.41632126494,-0.703429730713,0.35,-0.31420856253,0.0545877111072,0.35,-0.829558916928,0.368945476363,0.35,0.755173177487,0.161969229236,0.35,0.123184636643,-0.00416877531498
0.72,-0.0517726430262,0.0430963104454,0.72,-0.061294127634,0.037567898445,0.72,-2.38572655752,0.300176394857,0.72,0.00654645019677,0.0245710719553,0.72,-0.100570251641,0.0230178797786,0.72,-0.188048891476,0.108967131148,0.72,-0.577239574821,0.31605347044,0.72,-0.226729922695,0.070369412919,0.72,1.37764023372,-0.7313693457,0.36,-0.333846624533,0.0578279870425,0.36,-0.810515947713,0.377145850686,0.36,0.852768394718,0.153929521375,0.36,0.142822698646,-0.00549881199143
0.74,-0.061294127634,0.044226978152,0.74,-0.061294127634,0.0387937809977,0.74,-2.36608849552,0.347694545387,0.74,0.0357059968082,0.0241485474852,0.74,-0.100570251641,0.0250292848115,0.74,-0.168410829472,0.112531728357,0.74,-0.557601512817,0.327401881317,0.74,-0.226729922695,0.0749040113729,0.74,1.35800217172,-0.758725769754,0.37,-0.353484686537,0.0612646435978,0.37,-0.800399370317,0.385200427276,0.37,0.900970910545,0.145160824849,0.37,0.171982245258,-0.00707283671095
0.76,-0.061294127634,0.0454528607047,0.76,-0.061294127634,0.0400196635503,0.76,-2.42440758874,0.39559950623,0.76,0.0845036054234,0.0229464514629,0.76,-0.110091736249,0.0271359046904,0.76,-0.149367860256,0.115709515255,0.76,-0.528441966206,0.338262316107,0.76,-0.217208438087,0.0793433949807,0.76,1.3193211405,-0.785499002876,0.38,-0.363006171145,0.0648470978862,0.38,-0.800399370317,0.393204420979,0.38,0.911087487941,0.136100532856,0.38,0.201141791869,-0.00893845689658
0.78,-0.061294127634,0.0466787432574,0.78,-0.0517726430262,0.0411503312569,0.78,-2.48272668196,0.444670848937,0.78,0.142822698646,0.0206731884222,0.78,-0.139251282861,0.0296293348815,0.78,-0.129729798253,0.11850049184,0.78,-0.499282419594,0.348539559965,0.78,-0.207686953479,0.0835923488963,0.78,1.37764023372,-0.812468616619,0.39,-0.372527655752,0.0685247670207,0.39,-0.790877885709,0.401160807259,0.39,0.930130457156,0.126894443131,0.39,0.220184761085,-0.0110450896614
0.8,-0.061294127634,0.04790462581,0.8,-0.0517726430262,0.0421857841175,0.8,-2.58032189919,0.495301334748,0.8,0.230301338481,0.016941948051,0.8,-0.188048891476,0.0329023366248,0.8,-0.120208313645,0.120999872959,0.8,-0.470122872983,0.358233612891,0.8,-0.197570376084,0.087644922192,0.8,1.30979965589,-0.839343015515,0.4,-0.382644233148,0.0723006264652,0.4,-0.781356401101,0.409021978693,0.4,0.94976851916,0.117494948249,0.4,0.249344307696,-0.0133927350053
0.82,-0.061294127634,0.0491305083627,0.82,-0.061294127634,0.0433164518241,0.82,-2.6094814458,0.547199368198,0.82,0.317779978315,0.011461134883,0.82,-0.226729922695,0.0370501247665,0.82,-0.100570251641,0.123207658612,0.82,-0.41180377976,0.367052879418,0.82,-0.207686953479,0.0916974954876,0.82,1.26100204728,-0.865051032547,0.41,-0.382644233148,0.0761270687967,0.41,-0.771239823705,0.416784959817,0.41,0.969406581164,0.107899072747,0.41,0.307663400919,-0.0161777735483
0.84,-0.061294127634,0.0503563909154,0.84,-0.061294127634,0.0445423343767,0.84,-2.67732202364,0.600067402893,0.84,0.385620556146,0.00442712953838,0.84,-0.27552753131,0.0420726993066,0.84,-0.0422511584184,0.124635872712,0.84,-0.41180377976,0.375288955013,0.84,-0.226729922695,0.0960416642494,0.84,1.23184250067,-0.889979478026,0.42,-0.392165717756,0.0800011185512,0.42,-0.771239823705,0.424497358054,0.42,0.978928065771,0.0981573995128,0.42,0.356461009535,-0.0194983956006
0.86,-0.061294127634,0.0515822734681,0.86,-0.0517726430262,0.0456730020833,0.86,-2.65768396163,0.653417462745,0.86,0.454056226765,-0.00396963829073,0.86,-0.343368109141,0.0482616557111,0.86,0.0160679348046,0.124897704948,0.86,-0.382644233148,0.383233435142,0.86,-0.246367984699,0.100772643323,0.86,1.21220443866,-0.914419947419,0.43,-0.41180377976,0.0840209660388,0.43,-0.781356401101,0.432260339178,0.43,0.978928065771,0.0883681188551,0.43,0.36657758693,-0.0231135885829
0.88,-0.061294127634,0.0528081560208,0.88,-0.061294127634,0.04680366979,0.88,-2.68743860103,0.706868688372,0.88,0.512375319988,-0.0136339537583,0.88,-0.392165717756,0.0556169939801,0.88,0.0357059968082,0.124379965632,0.88,-0.343368109141,0.390493558565,0.88,-0.266006046702,0.105896383637,0.88,1.22232101606,-0.938765201967,0.44,-0.440963326371,0.0882848015695,0.44,-0.742080277094,0.439877522569,0.44,0.969406581164,0.0786264456204,0.44,0.376099071538,-0.0268269718753
0.9,-0.061294127634,0.0540340385734,0.9,-0.061294127634,0.0480295523426,0.9,-2.58032189919,0.759546293374,0.9,0.531418289203,-0.0240718898502,0.9,-0.41180377976,0.0636566889552,0.9,0.0553440588119,0.123469465076,0.9,-0.295165593314,0.39687889559,0.9,-0.285049015918,0.111406934264,0.9,1.16340683005,-0.962622480428,0.45,-0.450484810979,0.0927420422562,0.45,-0.75219685449,0.447348908227,0.45,0.969406581164,0.0689323798088,0.45,0.395737133542,-0.0306861529007
0.92,-0.061294127634,0.0552599211261,0.92,-0.061294127634,0.0492554348953,0.92,-2.56068383719,0.810956350738,0.92,0.551056351207,-0.0348966362543,0.92,-0.450484810979,0.0722795748626,0.92,0.0553440588119,0.1223625839,0.92,-0.266006046702,0.40249061199,0.92,-0.304687077922,0.117304295202,0.92,1.10508773683,-0.985307426096,0.46,-0.450484810979,0.097246890366,0.46,-0.723037307878,0.454725079039,0.46,0.959290003768,0.0592888968841,0.46,0.40525861815,-0.0346911316591
0.94,-0.061294127634,0.0564858036788,0.94,-0.061294127634,0.050481317448,0.94,-2.58032189919,0.862366408102,0.94,0.541534866599,-0.0458225484323,0.94,-0.460006295587,0.0813844859283,0.94,0.0743870280276,0.121065273031,0.94,-0.246367984699,0.407614352304,0.94,-0.333846624533,0.123689632226,0.94,1.07592819021,-1.00711758537,0.47,-0.460006295587,0.101799345899,0.47,-0.683761183871,0.461759071498,0.47,0.959290003768,0.0496959968464,0.47,0.434418164761,-0.0388895155737
0.96,-0.061294127634,0.0577116862315,0.96,-0.0422511584184,0.0515167703085,0.96,-2.61900293041,0.914359656398,0.96,0.551056351207,-0.0567484606104,0.96,-0.460006295587,0.09058461184,0.96,0.0845036054234,0.119476366697,0.96,-0.217208438087,0.412250116532,0.96,-0.353484686537,0.130562945337,0.96,1.01760909699,-1.02805295824,0.48,-0.470122872983,0.106449991742,0.48,-0.683761183871,0.468596683337,0.48,0.969406581164,0.0400525139218,0.48,0.443939649369,-0.0432813046443
0.98,-0.061294127634,0.0589375687842,0.98,-0.0517726430262,0.052457008323,0.98,-2.53152429058,0.965864928608,0.98,0.551056351207,-0.0677695876345,0.98,-0.470122872983,0.0998859035257,0.98,0.0845036054234,0.117786294588,0.98,-0.149367860256,0.415915879515,0.98,-0.382644233148,0.137924234534,0.98,0.978928065771,-1.04801832987,0.49,-0.479644357591,0.111198827895,0.49,-0.654601637259,0.475288497442,0.49,0.94976851916,0.0304566384201,0.49,0.463577711373,-0.047818891448
1,-0.061294127634,0.0601634513368,1,-0.0517726430262,0.0534924611835,1,-2.53152429058,1.01649541442,1,0.551056351207,-0.0787907146587,1,-0.479644357591,0.109383575831,1,0.0940250900312,0.116001007634,1,-0.0910487670335,0.418320045788,1,-0.392165717756,0.145672334043,1,0.920608972549,-1.06701370025,0.5,-0.51832538881,0.116188676627,0.5,-0.645080152652,0.481786906392,0.5,0.969406581164,0.0208607629185,0.5,0.454056226765,-0.0524070611387
1.02,-0.0517726430262,0.0612941190435,1.02,-0.0517726430262,0.054527914044,1.02,-2.3470455263,1.06528111259,1.02,0.560577835815,-0.0899070565289,1.02,-0.430846748975,0.118488486897,1.02,0.0845036054234,0.114215720679,1.02,-0.0422511584184,0.419653045043,1.02,-0.401687202364,0.153610863244,1.02,0.900970910545,-1.08522949908,0.51,-0.537963450814,0.121470120825,0.51,-0.625442090648,0.488139517608,0.51,0.978928065771,0.0111190896839,0.51,0.443939649369,-0.0568970405194
1.04,-0.061294127634,0.0624247867501,1.04,-0.061294127634,0.0556585817506,1.04,-2.25956688647,1.11134723672,1.04,0.589737382426,-0.101410208711,1.04,-0.41180377976,0.126914992184,1.04,0.0845036054234,0.112525648571,1.04,0.00654645019677,0.420010092125,1.04,-0.430846748975,0.161936202758,1.04,0.900970910545,-1.10324891729,0.52,-0.557601512817,0.126947945643,0.52,-0.61592060604,0.494346331092,0.52,0.998566127775,0.00123161871612,0.52,0.443939649369,-0.0613364370131
1.06,-0.0517726430262,0.0635554544567,1.06,-0.0517726430262,0.0567892494572,1.06,-2.20065270046,1.15594943259,1.06,0.599853959822,-0.113306122134,1.06,-0.372527655752,0.13475830654,1.06,0.0648655434197,0.111031957082,1.06,0.0452274814161,0.419492352809,1.06,-0.450484810979,0.170749518357,1.06,0.881927941329,-1.12107790581,0.53,-0.567122997425,0.132571568194,0.53,-0.606399121432,0.500457929729,0.53,0.988449550379,-0.00870345967465,0.53,0.434418164761,-0.0657282260837
1.08,-0.0517726430262,0.0645909073172,1.08,-0.0422511584184,0.0577294874717,1.08,-2.06497154479,1.19860567504,1.08,0.589737382426,-0.125202035556,1.08,-0.343368109141,0.141917264189,1.08,0.0553440588119,0.10982986106,1.08,0.0845036054234,0.41819504194,1.08,-0.460006295587,0.179854429423,1.08,0.862289879326,-1.13852008402,0.54,-0.577239574821,0.138293381055,0.54,-0.567122997425,0.506325540323,0.54,0.988449550379,-0.0185879551784,0.54,0.434418164761,-0.0700724077314
1.1,-0.061294127634,0.0657215750238,1.1,-0.0517726430262,0.0586697254861,1.1,-2.01617393618,1.23941712985,1.1,0.580215897819,-0.136901568359,1.1,-0.41180377976,0.149468983078,1.1,0.0553440588119,0.108722979884,1.1,0.123184636643,0.41611815952,1.1,-0.479644357591,0.189250935955,1.1,0.774811239491,-1.1548910952,0.55,-0.596282544037,0.14416099165,0.55,-0.528441966206,0.511803365142,0.55,0.969406581164,-0.0283772358362,0.55,0.443939649369,-0.074464196802
1.12,-0.061294127634,0.0669474575765,1.12,-0.0517726430262,0.0597051783466,1.12,-1.94833335835,1.27906220279,1.12,0.580215897819,-0.148505886315,1.12,-0.440963326371,0.157996654139,1.12,0.0553440588119,0.107616098708,1.12,0.132706121251,0.413559251941,1.12,-0.489165842198,0.198939037953,1.12,0.755173177487,-1.17019093937,0.56,-0.635558668044,0.15032019771,0.56,-0.489165842198,0.516891404184,0.56,0.959290003768,-0.0380207187608,0.56,0.443939649369,-0.0789035932957
1.14,-0.061294127634,0.0681733401291,1.14,-0.0517726430262,0.0607406312072,1.14,-1.75373801668,1.31608291654,1.14,0.551056351207,-0.159818608805,1.14,-0.363006171145,0.166036349114,1.14,0.0648655434197,0.106414002685,1.14,0.161865667862,0.41061353405,1.14,-0.489165842198,0.208722354796,1.14,0.726013630876,-1.18500280746,0.57,-0.664718214655,0.156821582123,0.57,-0.392165717756,0.521298061983,0.57,0.959290003768,-0.0476136187985,0.57,0.443939649369,-0.0833429897894
1.16,-0.061294127634,0.0693992226818,1.16,-0.0422511584184,0.0616808692216,1.16,-1.51034506639,1.34872374737,1.16,0.551056351207,-0.17083973583,1.16,-0.333846624533,0.173004877071,1.16,0.0648655434197,0.105116691817,1.16,0.191025214473,0.407084625226,1.16,-0.470122872983,0.218315241948,1.16,0.580215897819,-1.19806510275,0.58,-0.703399245875,0.163662169426,0.58,-0.363006171145,0.525073921428,0.58,0.94976851916,-0.0571589114131,0.58,0.47309919598,-0.0879281840161
1.18,-0.061294127634,0.0706251052345,1.18,-0.0517726430262,0.062621107236,1.18,-1.34490927133,1.37727629075,1.18,0.580215897819,-0.18215245832,1.18,-0.304687077922,0.179390214095,1.18,0.0743870280276,0.103724166102,1.18,0.191025214473,0.403264120937,1.18,-0.460006295587,0.227616533634,1.18,0.60937544443,-1.20996101617,0.59,-0.781356401101,0.171085947661,0.59,-0.31420856253,0.528459995096,0.59,0.94976851916,-0.0666565966047,0.59,0.483215773376,-0.0927097588629
1.2,-0.061294127634,0.0718509877872,1.2,-0.061294127634,0.0637517749426,1.2,-1.11163289844,1.40184171245,1.2,0.589737382426,-0.193851991122,1.2,-0.353484686537,0.18597193174,1.2,0.0940250900312,0.102040044922,1.2,0.181503729866,0.399538831494,1.2,-0.460006295587,0.236816659546,1.2,0.658173053045,-1.22263650114,0.6,-0.839675494324,0.179191107138,0.6,-0.266006046702,0.531361068142,0.6,0.94976851916,-0.0761542817963,0.6,0.47309919598,-0.0974913337097
1.22,-0.061294127634,0.0730768703399,1.22,-0.0422511584184,0.0647872278032,1.22,-0.839675494324,1.42135479638,1.22,0.580215897819,-0.205551523925,1.22,-0.372527655752,0.193232055163,1.22,0.103546574639,0.100064328275,1.22,0.181503729866,0.395908756896,1.22,-0.479644357591,0.246213166078,1.22,0.629013506434,-1.23550836674,0.61,-0.897994587547,0.187879457547,0.61,-0.207686953479,0.533729533143,0.61,0.94976851916,-0.0856519669879,0.61,0.483215773376,-0.102272908556
1.24,-0.061294127634,0.0743027528925,1.24,-0.0517726430262,0.0657274658176,1.24,-0.499282419594,1.43474437552,1.24,0.551056351207,-0.216864246415,1.24,-0.382644233148,0.200783774052,1.24,0.123184636643,0.0977970161624,1.24,0.161865667862,0.392475062919,1.24,-0.470122872983,0.255710838383,1.24,0.580215897819,-1.24760066078,0.62,-0.985473227382,0.197296796622,0.62,-0.139251282861,0.535464224325,0.62,0.94976851916,-0.0951496521795,0.62,0.47309919598,-0.107054483403
1.26,-0.061294127634,0.0755286354452,1.26,-0.0517726430262,0.0667629186781,1.26,-0.188048891476,1.44161768863,1.26,0.521896804596,-0.227593777973,1.26,-0.382644233148,0.208436658715,1.26,0.123184636643,0.0953333234295,1.26,0.142822698646,0.389428179254,1.26,-0.450484810979,0.264916915223,1.26,0.512375319988,-1.25852657296,0.63,-1.01463277399,0.207297326629,0.63,-0.061294127634,0.536466951377,0.63,0.940247034552,-0.104599729948,0.63,0.463577711373,-0.11173786794
1.28,-0.061294127634,0.0767545179979,1.28,-0.0517726430262,0.0677983715387,1.28,-0.100570251641,1.44450388006,1.28,0.502258742592,-0.237835333445,1.28,-0.401687202364,0.21627997307,1.28,0.123184636643,0.0928696306967,1.28,0.113663152035,0.386863320747,1.28,-0.401687202364,0.273438635356,1.28,0.424896680153,-1.26789929296,0.64,-1.08247335182,0.217782857258,0.64,0.0160679348046,0.536693082342,0.64,0.940247034552,-0.114002200294,0.64,0.454056226765,-0.116326037631
1.3,-0.061294127634,0.0779804005506,1.3,-0.061294127634,0.0689290392453,1.3,0.0160679348046,1.44534890323,1.3,0.492737257984,-0.247785293451,1.3,-0.401687202364,0.224313717117,1.3,0.132706121251,0.0903107231177,1.3,0.113663152035,0.384590057706,1.3,-0.382644233148,0.281281949711,1.3,0.36657758693,-1.27581403563,0.65,-1.10211141383,0.228705781086,0.65,0.0845036054234,0.53619022464,0.65,0.940247034552,-0.123404670639,0.65,0.454056226765,-0.120866599898
1.32,-0.061294127634,0.0792062831033,1.32,-0.061294127634,0.0701549217979,1.32,0.113663152035,1.44405159236,1.32,0.483215773376,-0.257544823764,1.32,-0.401687202364,0.232347461164,1.32,0.132706121251,0.0876566006927,1.32,0.0845036054234,0.382608390132,1.32,-0.363006171145,0.288738453754,1.32,0.336822947531,-1.28284804097,0.66,-1.12174947583,0.239825085535,0.66,0.132706121251,0.535104176007,0.66,0.959290003768,-0.132902355831,0.66,0.47309919598,-0.125502377012
1.34,-0.061294127634,0.0804321656559,1.34,-0.061294127634,0.0713808043506,1.34,0.230301338481,1.44061194745,1.34,0.463577711373,-0.267012758612,1.34,-0.41180377976,0.240482370986,1.34,0.132706121251,0.0850024782677,1.34,0.0845036054234,0.380918318023,1.34,-0.333846624533,0.295706981711,1.34,0.346939524927,-1.2896856657,0.67,-1.16043050705,0.251235985449,0.67,0.161865667862,0.533631317062,0.67,0.94976851916,-0.142447648445,0.67,0.502258742592,-0.130379166705
1.36,-0.0517726430262,0.0815628333626,1.36,-0.0517726430262,0.0725114720572,1.36,0.356461009535,1.43474432397,1.36,0.463577711373,-0.276284312839,1.36,-0.41180377976,0.248718446581,1.36,0.132706121251,0.0823483558427,1.36,0.0940250900312,0.379133031069,1.36,-0.324325139925,0.302288699356,1.36,0.346939524927,-1.2966244562,0.68,-1.16043050705,0.26284029052,0.68,0.181503729866,0.531914470073,0.68,0.940247034552,-0.151897726214,0.68,0.541534866599,-0.135598134751
1.38,-0.061294127634,0.0826935010692,1.38,-0.0422511584184,0.0734517100717,1.38,0.327301462923,1.42790669925,1.38,0.47309919598,-0.285651081913,1.38,-0.41180377976,0.256954522176,1.38,0.152344183254,0.0794978527976,1.38,0.103546574639,0.377157314422,1.38,-0.295165593314,0.308483606688,1.38,0.40525861815,-1.30414643763,0.69,-1.18959005366,0.274590393323,0.69,0.210663276477,0.529953635041,0.69,0.94976851916,-0.161347803982,0.69,0.570694413211,-0.14115928115
1.4,-0.061294127634,0.0839193836218,1.4,-0.0517726430262,0.0743919480861,1.4,0.346939524927,1.42116428937,1.4,0.483215773376,-0.295214231606,1.4,-0.460006295587,0.26567262293,1.4,0.152344183254,0.0764509691326,1.4,0.123184636643,0.374890002309,1.4,-0.285049015918,0.31428575278,1.4,0.40525861815,-1.31225160999,0.7,-1.18959005366,0.28648629386,0.7,0.249344307696,0.52765359712,0.7,0.940247034552,-0.170797881751,0.7,0.589737382426,-0.146961440128
1.42,-0.061294127634,0.0851452661745,1.42,-0.0422511584184,0.0753321861006,1.42,0.395737133542,1.41373752278,1.42,0.492737257984,-0.30497376192,1.42,-0.508803904202,0.275360724927,1.42,0.161865667862,0.0733088706214,1.42,0.123184636643,0.372426309576,1.42,-0.266006046702,0.319796303407,1.42,0.346939524927,-1.31977359142,0.71,-1.16043050705,0.298236396663,0.71,0.288620431704,0.524963773423,0.71,0.940247034552,-0.180200352097,0.71,0.589737382426,-0.152858813952
1.44,-0.061294127634,0.0863711487272,1.44,-0.0422511584184,0.0761772092689,1.44,0.531418289203,1.40446596856,1.44,0.521896804596,-0.315120102546,1.44,-0.567122997425,0.286119993944,1.44,0.152344183254,0.0701667721102,1.44,0.103546574639,0.370158997464,1.44,-0.255889469307,0.325015258567,1.44,0.278503854308,-1.32602802521,0.72,-1.22827108488,0.310179904623,0.72,0.307663400919,0.52198235426,0.72,0.94976851916,-0.189650429865,0.72,0.589737382426,-0.158756187777
1.46,-0.061294127634,0.0875970312799,1.46,-0.0517726430262,0.0771174472834,1.46,0.706375568872,1.39208802998,1.46,0.531418289203,-0.325653253484,1.46,-0.586761059429,0.297658834512,1.46,0.142822698646,0.0672151032912,1.46,0.0940250900312,0.368183280817,1.46,-0.246367984699,0.330037833107,1.46,0.230301338481,-1.33111607714,0.73,-1.21874960027,0.322415008049,0.73,0.317779978315,0.518855137364,0.73,0.969406581164,-0.199246305367,0.73,0.589737382426,-0.164653561601
1.48,-0.061294127634,0.0888229138326,1.48,-0.0517726430262,0.0781529001439,1.48,0.881927941329,1.37620499487,1.48,0.531418289203,-0.336281619268,1.48,-0.606399121432,0.309590436321,1.48,0.123184636643,0.0645550299383,1.48,0.0648655434197,0.366594374482,1.48,-0.236846500091,0.334869977955,1.48,0.201141791869,-1.33543050845,0.74,-1.25743063149,0.334795909208,0.74,0.317779978315,0.515677337581,0.74,0.978928065771,-0.208987978601,0.74,0.589737382426,-0.170550935425
1.5,-0.061294127634,0.0900487963852,1.5,-0.061294127634,0.0792835678505,1.5,1.01760909699,1.35720962449,1.5,0.541534866599,-0.347011150826,1.5,-0.606399121432,0.32171841875,1.5,0.0940250900312,0.0623829326716,1.5,0.0452274814161,0.365493444234,1.5,-0.226729922695,0.339505742183,1.5,0.123184636643,-1.33867377273,0.75,-1.2770686935,0.347468405832,0.75,0.327301462923,0.512451930375,0.75,1.01760909699,-0.218970664415,0.75,0.589737382426,-0.176448309249
1.52,-0.061294127634,0.0912746789379,1.52,-0.061294127634,0.0805094504032,1.52,1.0467686436,1.33656584708,1.52,0.531418289203,-0.357740682384,1.52,-0.61592060604,0.333941616024,1.52,0.103546574639,0.0604072160249,1.52,-0.0910487670335,0.36595165709,1.52,-0.207686953479,0.343849910944,1.52,0.0357059968082,-1.34026267907,0.76,-1.31574972472,0.360432497924,0.76,0.36657758693,0.508982535125,0.76,1.02772567439,-0.229197338272,0.76,0.599853959822,-0.182396265961
1.54,-0.061294127634,0.0925005614906,1.54,-0.061294127634,0.0817353329559,1.54,1.06640670561,1.31543409359,1.54,0.512375319988,-0.368178618476,1.54,-0.645080152652,0.346551623611,1.54,0.103546574639,0.0583362845321,1.54,-0.139251282861,0.368254657589,1.54,-0.168410829472,0.347610888774,1.54,-0.0226130964147,-1.34039360807,0.77,-1.30622824011,0.373542387748,0.77,0.424896680153,0.50502516379,0.77,1.056885221,-0.239620392749,0.77,0.618896929038,-0.188490020405
1.56,-0.061294127634,0.0937264440433,1.56,-0.0517726430262,0.0828660006625,1.56,1.13424728344,1.2934275537,1.56,0.502258742592,-0.378324959101,1.56,-0.664718214655,0.359649607284,1.56,0.103546574639,0.0562653530393,1.56,-0.120208313645,0.370849253554,1.56,-0.129729798253,0.350592295051,1.56,-0.0226130964147,-1.33994134614,0.78,-1.31574972472,0.386652277572,0.78,0.483215773376,0.500484601522,0.78,1.07592819021,-0.250284459805,0.78,0.638534991042,-0.194777180005
1.58,-0.061294127634,0.094952326596,1.58,-0.0517726430262,0.083901453523,1.58,1.21220443866,1.26996303648,1.58,0.521896804596,-0.388566514573,1.58,-0.693877761267,0.373235567043,1.58,0.103546574639,0.0541944215466,1.58,-0.100570251641,0.373057039207,1.58,-0.0809321896377,0.35269891493,1.58,-0.0130916118069,-1.33958429906,0.79,-1.30622824011,0.399762167396,0.79,0.560577835815,0.495265633476,0.79,1.11520431422,-0.261240122327,0.79,0.648056475649,-0.201210137339
1.6,-0.061294127634,0.0961782091486,1.6,-0.0517726430262,0.0849369063835,1.6,1.20268295406,1.24581416255,1.6,0.521896804596,-0.399004450665,1.6,-0.723037307878,0.387404717735,1.6,0.103546574639,0.0521234900538,1.6,-0.0714107050298,0.374776848774,1.6,-0.0226130964147,0.35373436779,1.6,0.0160679348046,-1.33961406229,0.8,-1.2865901781,0.412726259487,0.8,0.618896929038,0.489368259652,0.8,1.12472579883,-0.272439772893,0.8,0.638534991042,-0.207643094672
1.62,-0.061294127634,0.0974040917013,1.62,-0.0517726430262,0.085972359244,1.62,1.17352340744,1.22205209894,1.62,0.47309919598,-0.408954410671,1.62,-0.712920730482,0.401764298119,1.62,0.113663152035,0.049951392787,1.62,-0.0714107050298,0.376205062874,1.62,0.0553440588119,0.353407058166,1.62,0.0160679348046,-1.33993542099,0.81,-1.2865901781,0.425592161268,0.81,0.658173053045,0.482982909742,0.81,1.15388534544,-0.283832828614,0.81,0.638534991042,-0.214028444583
1.64,-0.061294127634,0.098629974254,1.64,-0.0517726430262,0.0870078121046,1.64,1.13424728344,1.19897439203,1.64,0.434418164761,-0.418029584278,1.64,-0.683761183871,0.415731117262,1.64,0.113663152035,0.0476781297463,1.64,-0.0714107050298,0.377633276975,1.64,0.0940250900312,0.351913366678,1.64,-0.0321345810225,-1.33977475452,0.82,-1.33538778672,0.438702051092,0.82,0.696854084264,0.476207774055,0.82,1.18304489205,-0.295517479801,0.82,0.638534991042,-0.220413794493
1.66,-0.0517726430262,0.0997606419606,1.66,-0.061294127634,0.0881384798112,1.66,1.10508773683,1.17658104183,1.66,0.36657758693,-0.426039541795,1.66,-0.664718214655,0.429215911247,1.66,0.0940250900312,0.0456012473257,1.66,-0.0714107050298,0.379061491076,1.66,0.132706121251,0.349646054565,1.66,-0.120208313645,-1.33825132558,0.83,-1.34490927133,0.452103536382,0.83,0.726013630876,0.469093435479,0.83,1.22232101606,-0.307544309342,0.83,0.638534991042,-0.226799144404
1.68,-0.061294127634,0.100891309667,1.68,-0.0517726430262,0.0892691475178,1.68,1.08604476761,1.15466971678,1.68,0.327301462923,-0.432978332294,1.68,-0.683761183871,0.442700705233,1.68,0.0845036054234,0.0438159603711,1.68,-0.0714107050298,0.380489705176,1.68,0.161865667862,0.346700336674,1.68,-0.149367860256,-1.33555556384,0.84,-1.39370687994,0.465796617139,0.84,0.764694662095,0.461639894015,0.84,1.26100204728,-0.319960924659,0.84,0.648056475649,-0.233232101737
1.7,-0.061294127634,0.10211719222,1.7,-0.061294127634,0.0903998152244,1.7,1.12472579883,1.13256201112,1.7,0.288620431704,-0.43913755124,1.7,-0.723037307878,0.45676869015,1.7,0.0648655434197,0.0423222688827,1.7,-0.0714107050298,0.381917919277,1.7,0.191025214473,0.343171427851,1.7,-0.295165593314,-1.3311102293,0.85,-1.38418539533,0.479686078515,0.85,0.794449301495,0.453844174197,0.85,1.2996830785,-0.332764350287,0.85,0.667694537653,-0.239810856804
1.72,-0.061294127634,0.103343074773,1.72,-0.061294127634,0.0916256977771,1.72,1.10508773683,1.11026387576,1.72,0.239822823089,-0.444421983788,1.72,-0.712920730482,0.471128270534,1.72,0.0553440588119,0.0411201728604,1.72,-0.061294127634,0.383244967603,1.72,0.210663276477,0.339154542941,1.72,-0.266006046702,-1.3254985129,0.86,-1.40382345734,0.493626122778,0.86,0.823608848106,0.445753883449,0.86,1.2996830785,-0.345761181072,0.86,0.687332599657,-0.24658599249
1.74,-0.0517726430262,0.104473742479,1.74,-0.061294127634,0.0928515803297,1.74,1.09556625222,1.08825733587,1.74,0.181503729866,-0.448635249318,1.74,-0.683761183871,0.485095089677,1.74,0.0648655434197,0.0399180768381,1.74,0.0648655434197,0.383209253446,1.74,0.220184761085,0.334846062566,1.74,-0.246367984699,-1.32037477259,0.87,-1.41334494195,0.507711964775,0.87,0.862289879326,0.437324389811,0.87,1.3193211405,-0.358856202167,0.87,0.706375568872,-0.253554533333
1.76,-0.0517726430262,0.10550919534,1.76,-0.0517726430262,0.0939822480363,1.76,1.10508773683,1.06625079598,1.76,0.123184636643,-0.451682132983,1.76,-0.693877761267,0.498871479129,1.76,0.0553440588119,0.0387159808158,1.76,0.161865667862,0.380941941333,1.76,0.230301338481,0.33034120157,1.76,-0.217208438087,-1.31573900836,0.88,-1.43298300395,0.521943604504,0.88,0.900970910545,0.428508085862,0.88,1.32884262511,-0.372097020995,0.88,0.706375568872,-0.260618289021
1.78,-0.061294127634,0.106639863046,1.78,-0.0517726430262,0.0950177008969,1.78,1.14436386083,1.04375628,1.78,0.0357059968082,-0.453271039317,1.78,-0.674239699263,0.512552653734,1.78,0.0553440588119,0.0376090996395,1.78,0.132706121251,0.377996223442,1.78,0.210663276477,0.32593155542,1.78,-0.236846500091,-1.31119845898,0.89,-1.39370687994,0.536077053924,0.89,0.920608972549,0.419400186447,0.89,1.32884262511,-0.385385447247,0.89,0.735535115484,-0.267827842443
1.8,-0.0714107050298,0.107966911373,1.8,-0.0517726430262,0.0960531537574,1.8,1.13424728344,1.02097016856,1.8,-0.0321345810225,-0.453306753475,1.8,-0.723037307878,0.526525423805,1.8,0.0452274814161,0.0366033842372,1.8,0.0845036054234,0.375824126175,1.8,0.191025214473,0.321914670511,1.8,-0.27552753131,-1.30607471866,0.9,-1.38418539533,0.5499665153,0.9,0.940247034552,0.410095906411,0.9,1.33895920251,-0.398724456385,0.9,0.74565169288,-0.275233776485
1.82,-0.061294127634,0.1092939597,1.82,-0.061294127634,0.097183821464,1.82,1.13424728344,0.998285222893,1.82,-0.100570251641,-0.451979705148,1.82,-0.771239823705,0.541468195121,1.82,0.0452274814161,0.0356988346089,1.82,0.00654645019677,0.374913625619,1.82,0.161865667862,0.318385761688,1.82,-0.31420856253,-1.30017735773,0.91,-1.42286642655,0.56400177441,0.91,0.94976851916,0.400645828643,0.91,1.32884262511,-0.412063465523,0.91,0.74565169288,-0.282690293414
1.84,-0.061294127634,0.110519842252,1.84,-0.061294127634,0.0984097040167,1.84,1.14436386083,0.975499111451,1.84,-0.178527406868,-0.449188728563,1.84,-0.810515947713,0.557285752835,1.84,0.0452274814161,0.0347942849806,1.84,-0.061294127634,0.375461102393,1.84,0.152344183254,0.315243663176,1.84,-0.353484686537,-1.29350042523,0.92,-1.42286642655,0.578230438675,0.92,0.94976851916,0.391148143451,0.92,1.34848068711,-0.425450082084,0.92,0.74565169288,-0.290146810343
1.86,-0.061294127634,0.111745724805,1.86,-0.0517726430262,0.0995403717233,1.86,1.13424728344,0.952713000008,1.86,-0.266006046702,-0.444743394028,1.86,-0.800399370317,0.573394906016,1.86,0.0357059968082,0.0339849501984,1.86,-0.0714107050298,0.37678815072,1.86,0.142822698646,0.312291994357,1.86,-0.401687202364,-1.28594870635,0.93,-1.43298300395,0.592509685828,0.93,0.959290003768,0.381602850836,0.93,1.33895920251,-0.438887281532,0.93,0.755173177487,-0.297650934694
1.88,-0.061294127634,0.112971607358,1.88,-0.0422511584184,0.100480609738,1.88,1.12472579883,0.930123269185,1.88,-0.333846624533,-0.438744867315,1.88,-0.820037432321,0.589599274042,1.88,0.0160679348046,0.0334672108822,1.88,-0.0714107050298,0.37821636482,1.88,0.161865667862,0.309245110692,1.88,-0.460006295587,-1.27733177137,0.94,-1.48118551978,0.607080528446,0.94,0.969406581164,0.371959367912,0.94,1.35800217172,-0.452372088403,0.94,0.74565169288,-0.305155059046
1.9,-0.061294127634,0.11419748991,1.9,-0.0517726430262,0.101420847752,1.9,1.056885221,0.908307158987,1.9,-0.392165717756,-0.431484743892,1.9,-0.771239823705,0.605512046602,1.9,0.00654645019677,0.0332410670322,1.9,-0.0714107050298,0.379644578921,1.9,0.161865667862,0.306007797335,1.9,-0.499282419594,-1.26773888421,0.95,-1.50082358178,0.621990573954,0.95,0.969406581164,0.3622653021,0.95,1.34848068711,-0.465904502697,0.95,0.74565169288,-0.312611575975
1.92,-0.061294127634,0.115423372463,1.92,-0.0422511584184,0.102361085767,1.92,1.01760909699,0.887562215807,1.92,-0.401687202364,-0.423546214691,1.92,-0.742080277094,0.62064524761,1.92,-0.0130916118069,0.0333065186483,1.92,-0.061294127634,0.380971627247,1.92,0.161865667862,0.302770483978,1.92,-0.557601512817,-1.25717004489,0.96,-1.50082358178,0.636998809772,0.96,0.969406581164,0.352571236288,0.96,1.33895920251,-0.479341702145,0.96,0.755173177487,-0.320115700327
1.94,-0.061294127634,0.116649255016,1.94,-0.0517726430262,0.103301323781,1.94,1.00808761238,0.867305248713,1.94,-0.401687202364,-0.415512470644,1.94,-0.723037307878,0.63529642346,1.94,-0.0130916118069,0.0335683508845,1.94,-0.061294127634,0.3821975098,1.94,0.171982245258,0.299432004847,1.94,-0.635558668044,-1.24523844308,0.97,-1.539504613,0.652200450746,0.97,0.978928065771,0.342829563054,0.97,1.32884262511,-0.492680711283,0.97,0.764694662095,-0.327715039525
1.96,-0.061294127634,0.117875137568,1.96,-0.0517726430262,0.104336776642,1.96,1.01760909699,0.84704828162,1.96,-0.41180377976,-0.407377560823,1.96,-0.683761183871,0.649364408377,1.96,-0.0226130964147,0.0339253979667,1.96,-0.061294127634,0.383423392353,1.96,0.171982245258,0.295992359941,1.96,-0.723037307878,-1.23165248332,0.98,-1.5496211904,0.667646079763,0.98,0.988449550379,0.332992674973,0.98,1.30979965589,-0.505873922688,0.98,0.784332724099,-0.335460176456
1.98,-0.061294127634,0.119101020121,1.98,-0.0517726430262,0.105372229502,1.98,1.0467686436,0.826404504214,1.98,-0.440963326371,-0.398849889761,1.98,-0.654601637259,0.662748036589,1.98,-0.0321345810225,0.034472874741,1.98,-0.0517726430262,0.384554060059,1.98,0.161865667862,0.29265388081,1.98,-0.781356401101,-1.21660854623,0.99,-1.539504613,0.68309170878,0.99,0.988449550379,0.323108179469,0.99,1.3193211405,-0.51901952667,0.99,0.794449301495,-0.343354086584
2,-0.061294127634,0.120326902674,2,-0.0517726430262,0.106407682363,2,0.998566127775,0.8059511565,2,-0.460006295587,-0.389840193542,2,-0.683761183871,0.6761316648,2,-0.0517726430262,0.0353119469815,2,-0.0517726430262,0.38558951292,2,0.171982245258,0.289315401679,2,-0.790877885709,-1.20088620336,1,-1.5496211904,0.698537337797,1,1.01760909699,0.313077886232,1,1.29016159389,-0.532066940342,1,0.803970786103,-0.351346187022
2.02,-0.061294127634,0.121552785226,2.02,-0.0517726430262,0.107443135223,2.02,0.94976851916,0.786467810031,2.02,-0.479644357591,-0.38044368701,2.02,-0.693877761267,0.689908054251,2.02,-0.0714107050298,0.0365437804621,2.02,-0.0422511584184,0.386529750934,2.02,0.171982245258,0.285875756774,2.02,-0.781356401101,-1.1851638605,1.01,-1.57878073701,0.714179347434,1.01,1.02772567439,0.302851212375,1.01,1.24136398527,-0.544724568238,1.01,0.794449301495,-0.35933828746
2.04,-0.061294127634,0.122778667779,2.04,-0.0517726430262,0.108478588084,2.04,0.871811363933,0.7682520112,2.04,-0.489165842198,-0.370755585012,2.04,-0.693877761267,0.703785609477,2.04,-0.100570251641,0.0382635900288,2.04,-0.0422511584184,0.387374774103,2.04,0.181503729866,0.282340897023,2.04,-0.810515947713,-1.16924513701,1.02,-1.52046164378,0.729675559338,1.02,1.08604476761,0.292282360165,1.02,1.24136398527,-0.557138208091,1.02,0.784332724099,-0.367232197588
2.06,-0.061294127634,0.124004550332,2.06,-0.0517726430262,0.109514040944,2.06,0.794449301495,0.751589404545,2.06,-0.489165842198,-0.360972268168,2.06,-0.693877761267,0.717663164702,2.06,-0.120208313645,0.0404713756817,2.06,-0.0517726430262,0.388315012117,2.06,0.201141791869,0.278514441805,2.06,-0.917037556763,-1.15196960196,1.03,-1.51034506639,0.744829592889,1.03,1.07592819021,0.281472495376,1.03,1.22232101606,-0.569456633098,1.03,0.764694662095,-0.374977334519
2.08,-0.061294127634,0.125230432884,2.08,-0.0517726430262,0.110549493805,2.08,0.764694662095,0.735997964909,2.08,-0.528441966206,-0.350796190084,2.08,-0.693877761267,0.731540719927,2.08,-0.129729798253,0.0429707568006,2.08,-0.0517726430262,0.389350464978,2.08,0.201141791869,0.274491605968,2.08,-1.034270836,-1.13245651804,1.04,-1.47166403517,0.759739638396,1.04,1.06640670561,0.270760820897,1.04,1.19256637666,-0.581531070061,1.04,0.74565169288,-0.382529066294
2.1,-0.061294127634,0.126456315437,2.1,-0.061294127634,0.111680161511,2.1,0.794449301495,0.720406525274,2.1,-0.557601512817,-0.339935755294,2.1,-0.654601637259,0.745025513913,2.1,-0.139251282861,0.0456605676118,2.1,-0.0422511584184,0.390290702992,2.1,0.191025214473,0.270569935904,2.1,-1.13127096044,-1.11080110007,1.05,-1.41334494195,0.774164683282,1.05,1.06640670561,0.260096753841,1.05,1.18304489205,-0.593409126405,1.05,0.74565169288,-0.389985583222
2.12,-0.061294127634,0.12768219799,2.12,-0.0517726430262,0.112810829218,2.12,0.852768394718,0.703934348311,2.12,-0.567122997425,-0.328688510191,2.12,-0.625442090648,0.757825951192,2.12,-0.139251282861,0.048445593269,2.12,-0.0517726430262,0.391230941007,2.12,0.201141791869,0.266648265841,2.12,-1.19911153827,-1.08749727508,1.06,-1.36454733333,0.788054144658,1.06,1.03724715899,0.249578484518,1.06,1.19256637666,-0.605287182748,1.06,0.735535115484,-0.397391517264
2.14,-0.061294127634,0.128908080542,2.14,-0.0517726430262,0.113846282078,2.14,0.842651817322,0.686980146191,2.14,-0.606399121432,-0.316953289003,2.14,-0.596282544037,0.770043197539,2.14,-0.149367860256,0.0513317847002,2.14,-0.061294127634,0.392361608713,2.14,0.201141791869,0.262625430004,2.14,-1.22827108488,-1.06322344885,1.07,-1.30622824011,0.801408022526,1.07,1.02772567439,0.239253620351,1.07,1.17352340744,-0.617117631669,1.07,0.74565169288,-0.404797451306
2.16,-0.061294127634,0.130133963095,2.16,-0.0517726430262,0.114881734939,2.16,0.755173177487,0.671001896243,2.16,-0.61592060604,-0.304730091728,2.16,-0.537963450814,0.781385657487,2.16,-0.168410829472,0.0545095715974,2.16,-0.0517726430262,0.39349227642,2.16,0.201141791869,0.258602594166,2.16,-1.2770686935,-1.03817005107,1.08,-1.25743063149,0.814226316884,1.08,1.01760909699,0.229026946494,1.08,1.17352340744,-0.628852865743,1.08,0.755173177487,-0.412301575658
2.18,-0.061294127634,0.131359845648,2.18,-0.0517726430262,0.115917187799,2.18,0.755173177487,0.655898432693,2.18,-0.606399121432,-0.292506894453,2.18,-0.460006295587,0.791365354951,2.18,-0.178527406868,0.0579789539608,2.18,-0.0517726430262,0.39452772928,2.18,0.201141791869,0.254579758329,2.18,-1.36454733333,-1.0117538908,1.09,-1.16995199166,0.826363229999,1.09,0.988449550379,0.218996653258,1.09,1.16340683005,-0.640537516931,1.09,0.784332724099,-0.419999105166
2.2,-0.0517726430262,0.132490513354,2.2,-0.0517726430262,0.11695264066,2.2,0.74565169288,0.64089018399,2.2,-0.606399121432,-0.280378912025,2.2,-0.401687202364,0.799982289931,2.2,-0.197570376084,0.0617399317904,2.2,-0.061294127634,0.395658396987,2.2,0.201141791869,0.250556922492,2.2,-1.39370687994,-0.984171348668,1.1,-1.10211141383,0.837723547027,1.1,0.978928065771,0.209159765177,1.1,1.15388534544,-0.652123977808,1.1,0.81349227071,-0.42798823014
2.22,-0.061294127634,0.133621181061,2.22,-0.0517726430262,0.117988093521,2.22,0.755173177487,0.625881935286,2.22,-0.606399121432,-0.268250929596,2.22,-0.382644233148,0.807825604286,2.22,-0.217208438087,0.0658877199321,2.22,-0.0517726430262,0.396789064694,2.22,0.191025214473,0.246635252428,2.22,-1.45202597317,-0.955714020137,1.11,-0.994994711989,0.848209077656,1.11,0.988449550379,0.199322877096,1.11,1.12472579883,-0.663517033529,1.11,0.823608848106,-0.436173735734
2.24,-0.061294127634,0.134847063614,2.24,-0.0517726430262,0.119023546381,2.24,0.81349227071,0.610195280804,2.24,-0.606399121432,-0.256122947167,2.24,-0.401687202364,0.815668918641,2.24,-0.217208438087,0.0702318886938,2.24,-0.0517726430262,0.397824517554,2.24,0.191025214473,0.242814748139,2.24,-1.50082358178,-0.926185524588,1.12,-0.887878010151,0.857623441266,1.12,0.998566127775,0.189387798705,1.12,1.09556625222,-0.674618493785,1.12,0.823608848106,-0.444409824215
2.26,-0.0517726430262,0.13597773132,2.26,-0.0422511584184,0.119963784396,2.26,0.842651817322,0.593633839924,2.26,-0.606399121432,-0.243994964739,2.26,-0.372527655752,0.823411067222,2.26,-0.217208438087,0.0745760574556,2.26,-0.061294127634,0.398955185261,2.26,0.181503729866,0.239089458695,2.26,-1.47166403517,-0.896460648418,1.13,-0.800399370317,0.866064828169,1.13,1.01760909699,0.179306922581,1.13,1.056885221,-0.685380751151,1.13,0.784332724099,-0.452449532076
2.28,-0.0517726430262,0.137013184181,2.28,-0.0422511584184,0.120808807564,2.28,0.74565169288,0.577750804822,2.28,-0.606399121432,-0.23186698231,2.28,-0.353484686537,0.830671190645,2.28,-0.207686953479,0.0788250113712,2.28,-0.0422511584184,0.399990638121,2.28,0.191025214473,0.235364169252,2.28,-1.46214255056,-0.867122582561,1.14,-0.712920730482,0.873631428673,1.14,1.03724715899,0.169032641302,1.14,1.02772567439,-0.695803805628,1.14,0.784332724099,-0.460292859317
2.3,-0.0517726430262,0.138048637041,2.3,-0.0422511584184,0.121653830732,2.3,0.677216022261,0.56352212767,2.3,-0.596282544037,-0.219840165655,2.3,-0.343368109141,0.837639718602,2.3,-0.197570376084,0.0828775846669,2.3,-0.061294127634,0.401026090982,2.3,0.181503729866,0.231638879808,2.3,-1.45202597317,-0.837980897324,1.15,-0.61592060604,0.880275635355,1.15,1.02772567439,0.158707777135,1.15,0.978928065771,-0.705837074329,1.15,0.764694662095,-0.468037996248
2.32,-0.061294127634,0.139179304748,2.32,-0.0517726430262,0.122594068747,2.32,0.658173053045,0.550168236917,2.32,-0.606399121432,-0.207813349001,2.32,-0.27552753131,0.843828675006,2.32,-0.188048891476,0.0867337773425,2.32,-0.061294127634,0.402251973534,2.32,0.181503729866,0.228008805211,2.32,-1.46214255056,-0.808839212086,1.16,-0.548080028209,0.886095638527,1.16,1.02772567439,0.148430520391,1.16,0.959290003768,-0.715528164676,1.16,0.764694662095,-0.475684942869
2.34,-0.061294127634,0.140405187301,2.34,-0.0517726430262,0.123629521607,2.34,0.706375568872,0.536522750698,2.34,-0.606399121432,-0.195685366572,2.34,-0.266006046702,0.849244010786,2.34,-0.197570376084,0.090589970018,2.34,-0.061294127634,0.403477856087,2.34,0.181503729866,0.224378730614,2.34,-1.5496211904,-0.778721574677,1.17,-0.508803904202,0.891380058189,1.17,1.01760909699,0.138203846534,1.17,0.900970910545,-0.724829469248,1.17,0.764694662095,-0.48333188949
2.36,-0.061294127634,0.141631069853,2.36,-0.0517726430262,0.124664974468,2.36,0.726013630876,0.5221988587,2.36,-0.61592060604,-0.183462169297,2.36,-0.226729922695,0.85417137048,2.36,-0.197570376084,0.0945413775397,2.36,-0.0517726430262,0.404608523794,2.36,0.191025214473,0.22065344117,2.36,-1.62698325283,-0.746955530245,1.18,-0.460006295587,0.896224109188,1.18,1.03724715899,0.127929565254,1.18,0.852768394718,-0.733598165774,1.18,0.764694662095,-0.490978836111
2.38,-0.061294127634,0.142856952406,2.38,-0.0517726430262,0.125700427328,2.38,0.638534991042,0.508553372481,2.38,-0.625442090648,-0.171048542331,2.38,-0.255889469307,0.8589975644,2.38,-0.197570376084,0.0984927850614,2.38,-0.061294127634,0.4057391915,2.38,0.181503729866,0.216928151727,2.38,-1.74362143928,-0.713249483323,1.19,-0.401687202364,0.900532576677,1.19,1.03724715899,0.117557093664,1.19,0.794449301495,-0.741834254255,1.19,0.774811239491,-0.498676365619
2.4,-0.061294127634,0.144082834959,2.4,-0.0517726430262,0.126735880189,2.4,0.589737382426,0.496270648747,2.4,-0.606399121432,-0.15873013021,2.4,-0.27552753131,0.864311734407,2.4,-0.207686953479,0.102545358357,2.4,-0.061294127634,0.406965074053,2.4,0.181503729866,0.21329807713,2.4,-1.73409995467,-0.678472269384,1.2,-0.382644233148,0.904454233855,1.2,1.056885221,0.107086431764,1.2,0.706375568872,-0.749338378607,1.2,0.794449301495,-0.506522668324
2.42,-0.061294127634,0.145308717511,2.42,-0.061294127634,0.127866547895,2.42,0.580215897819,0.484571115944,2.42,-0.606399121432,-0.146602147781,2.42,-0.31420856253,0.870209095345,2.42,-0.217208438087,0.106794312273,2.42,-0.061294127634,0.408190956606,2.42,0.181503729866,0.209668002532,2.42,-1.76325950128,-0.643498674824,1.21,-0.372527655752,0.908230093299,1.21,1.06640670561,0.096469972131,1.21,0.638534991042,-0.756062931407,1.21,0.794449301495,-0.514467161339
2.44,-0.061294127634,0.146534600064,2.44,-0.061294127634,0.129092430448,2.44,0.541534866599,0.4733536083,2.44,-0.586761059429,-0.134670545972,2.44,-0.353484686537,0.876886027836,2.44,-0.207686953479,0.111043266188,2.44,-0.0517726430262,0.409321624312,2.44,0.171982245258,0.206133142781,2.44,-1.75373801668,-0.608328699645,1.22,-0.353484686537,0.911860155011,1.22,1.056885221,0.085853512498,1.22,0.560577835815,-0.762058495541,1.22,0.803970786103,-0.522459261777
2.46,-0.061294127634,0.147760482617,2.46,-0.061294127634,0.130318313001,2.46,0.502258742592,0.462915672208,2.46,-0.577239574821,-0.12303053963,2.46,-0.333846624533,0.883759340946,2.46,-0.197570376084,0.115095839484,2.46,-0.061294127634,0.410452292019,2.46,0.171982245258,0.202693497876,2.46,-1.8019405325,-0.572771914153,1.23,-0.333846624533,0.915296811566,1.23,1.056885221,0.075284660288,1.23,0.502258742592,-0.767372678433,1.23,0.803970786103,-0.530498969638
2.48,-0.0517726430262,0.148891150323,2.48,-0.061294127634,0.131544195553,2.48,0.443939649369,0.453453688288,2.48,-0.577239574821,-0.111485748134,2.48,-0.27552753131,0.889853082505,2.48,-0.207686953479,0.11914841278,2.48,-0.0517726430262,0.411582959725,2.48,0.181503729866,0.199158638125,2.48,-1.8316951719,-0.536435557109,1.24,-0.27552753131,0.918343682346,1.24,1.056885221,0.064715808078,1.24,0.434418164761,-0.77205606297,1.24,0.794449301495,-0.538491070076
2.5,-0.061294127634,0.15002181803,2.5,-0.061294127634,0.132770078106,2.5,0.356461009535,0.445449681699,2.5,-0.577239574821,-0.0999409566371,2.5,-0.236846500091,0.894976822819,2.5,-0.207686953479,0.123302151849,2.5,-0.061294127634,0.412713627432,2.5,0.171982245258,0.195623778374,2.5,-1.86085471851,-0.499510058205,1.25,-0.197570376084,0.920709171882,1.25,1.056885221,0.0541469558681,1.25,0.346939524927,-0.775962851418,1.25,0.784332724099,-0.546384980204
2.52,-0.061294127634,0.151247700583,2.52,-0.0714107050298,0.134097126433,2.52,0.288620431704,0.438998867287,2.52,-0.567122997425,-0.0884973309147,2.52,-0.207686953479,0.899422157354,2.52,-0.217208438087,0.127551105765,2.52,-0.061294127634,0.413939509985,2.52,0.161865667862,0.192285299242,2.52,-1.98701438957,-0.461031367124,1.26,-0.139251282861,0.922393280177,1.26,1.03724715899,0.0436762939681,1.26,0.2689823697,-0.779042460891,1.26,0.784332724099,-0.554228307445
2.54,-0.061294127634,0.152473583135,2.54,-0.0517726430262,0.135328959913,2.54,0.220184761085,0.433910815359,2.54,-0.557601512817,-0.0772500858123,2.54,-0.139251282861,0.902891539718,2.54,-0.217208438087,0.131895274527,2.54,-0.061294127634,0.415165392537,2.54,0.152344183254,0.189143200731,2.54,-2.03581199818,-0.420803103246,1.27,-0.0714107050298,0.923446590117,1.27,1.0467686436,0.0332562149551,1.27,0.161865667862,-0.781196701079,1.27,0.764694662095,-0.561973444376
2.56,-0.0517726430262,0.153604250842,2.56,-0.061294127634,0.13645962762,2.56,0.220184761085,0.429507120137,2.56,-0.537963450814,-0.066294436176,2.56,-0.061294127634,0.904896993823,2.56,-0.217208438087,0.136239443288,2.56,-0.061294127634,0.41639127509,2.56,0.132706121251,0.186292697686,2.56,-2.12329063802,-0.379212076884,1.28,0.00654645019677,0.923770911391,1.28,1.03724715899,0.0228361359421,1.28,0.0553440588119,-0.782282749712,1.28,0.774811239491,-0.569670973883
2.58,-0.061294127634,0.154734918548,2.58,-0.0517726430262,0.137590295327,2.58,0.239822823089,0.424907044296,2.58,-0.528441966206,-0.0556303820058,2.58,-0.0321345810225,0.905831280909,2.58,-0.226729922695,0.140678826896,2.58,-0.061294127634,0.417617157643,2.58,0.113663152035,0.183829004953,2.58,-2.10365257601,-0.336942644744,1.29,0.0845036054234,0.923315661113,1.29,1.056885221,0.0123654740422,1.29,-0.061294127634,-0.782252999368,1.29,0.764694662095,-0.577368503391
2.6,-0.061294127634,0.155960801101,2.6,-0.0517726430262,0.138625748187,2.6,0.2689823697,0.419818992368,2.6,-0.51832538881,-0.0451627084556,2.6,-0.110091736249,0.907253544082,2.6,-0.226729922695,0.14521342535,2.6,-0.0714107050298,0.418944205969,2.6,0.0845036054234,0.181847337379,2.6,-2.14233360723,-0.294482782912,1.3,0.142822698646,0.922179029592,1.3,1.03724715899,0.0018948121422,1.3,-0.197570376084,-0.78095867685,1.3,0.755173177487,-0.584967842589
2.62,-0.061294127634,0.157186683654,2.62,-0.0517726430262,0.139661201048,2.62,0.2689823697,0.414439344974,2.62,-0.508803904202,-0.0348914155255,2.62,-0.168410829472,0.910038569739,2.62,-0.226729922695,0.149748023804,2.62,-0.0714107050298,0.42037242007,2.62,0.0648655434197,0.18035364589,2.62,-2.12329063802,-0.251826540459,1.31,0.191025214473,0.920509790027,1.31,1.01760909699,-0.00837946913773,1.31,-0.343368109141,-0.778253984424,1.31,0.755173177487,-0.592519574364
2.64,-0.061294127634,0.158412566207,2.64,-0.0517726430262,0.140696653908,2.64,0.249344307696,0.4092560782,2.64,-0.528441966206,-0.0245189568214,2.64,-0.149367860256,0.913216356637,2.64,-0.207686953479,0.154092192566,2.64,-0.0714107050298,0.421800634171,2.64,0.0553440588119,0.179151549868,2.64,-2.15245018463,-0.209069132233,1.32,0.239822823089,0.918355549839,1.32,1.00808761238,-0.0185079526846,1.32,-0.508803904202,-0.773993124357,1.32,0.735535115484,-0.599973115829
2.66,-0.061294127634,0.159638448759,2.66,-0.0517726430262,0.141732106769,2.66,0.220184761085,0.404560787512,2.66,-0.537963450814,-0.0138549026512,2.66,-0.0910487670335,0.915620522909,2.66,-0.197570376084,0.158144765861,2.66,-0.061294127634,0.423127682497,2.66,0.0261845122004,0.178336264158,2.66,-2.13281212263,-0.16621650916,1.33,0.278503854308,0.915763916452,1.33,0.988449550379,-0.0284906384984,1.33,-0.674239699263,-0.76807790634,1.33,0.716492146268,-0.607233252138
2.68,-0.0517726430262,0.160769116466,2.68,-0.0517726430262,0.142767559629,2.68,0.171982245258,0.400639117449,2.68,-0.537963450814,-0.00309563363495,2.68,0.0160679348046,0.916370331232,2.68,-0.188048891476,0.162000958537,2.68,-0.0517726430262,0.424258350204,2.68,-0.0130916118069,0.178205335154,2.68,-2.0744930294,-0.12414345764,1.34,0.307663400919,0.912833080176,1.34,0.978928065771,-0.0383275265792,1.34,-0.800399370317,-0.760704710992,1.34,0.706375568872,-0.614347590713
2.7,-0.0517726430262,0.161804569326,2.7,-0.0517726430262,0.14380301249,2.7,0.0845036054234,0.398074258942,2.7,-0.537963450814,0.00766363538132,2.7,0.0743870280276,0.915465781603,2.7,-0.178527406868,0.16566672152,2.7,-0.061294127634,0.42538901791,2.7,-0.0517726430262,0.178853977702,2.7,-2.09413109141,-0.0824572164318,1.35,0.327301462923,0.909658255857,1.35,0.959290003768,-0.0480186169269,1.35,-0.917037556763,-0.752117526356,1.35,0.696854084264,-0.621363738979
2.72,-0.0517726430262,0.162840022187,2.72,-0.0517726430262,0.14483846535,2.72,-0.0422511584184,0.397651734472,2.72,-0.51832538881,0.0182265237776,2.72,0.113663152035,0.913585279803,2.72,-0.168410829472,0.169136103884,2.72,-0.061294127634,0.426614900463,2.72,-0.0910487670335,0.180282191803,2.72,-2.09413109141,-0.0405745946037,1.36,0.356461009535,0.906239443494,1.36,0.940247034552,-0.0575163021185,1.36,-1.0241542586,-0.742411567279,1.36,0.706375568872,-0.628379887245
2.74,-0.0517726430262,0.163875475047,2.74,-0.0517726430262,0.145873918211,2.74,-0.0422511584184,0.39849675764,2.74,-0.508803904202,0.0284978167077,2.74,0.142822698646,0.911020421296,2.74,-0.168410829472,0.172504320473,2.74,-0.061294127634,0.427840783016,2.74,-0.120208313645,0.18239476261,2.74,-2.12329063802,0.00159962269056,1.37,0.356461009535,0.902674833399,1.37,0.920608972549,-0.066820582154,1.37,-1.0241542586,-0.732170024693,1.37,0.706375568872,-0.635443642934
2.76,-0.0517726430262,0.164910927908,2.76,-0.0517726430262,0.146909371071,2.76,-0.207686953479,0.400996138759,2.76,-0.489165842198,0.0384775141717,2.76,0.201141791869,0.907580776391,2.76,-0.158889344864,0.175777322217,2.76,-0.0714107050298,0.429167831342,2.76,-0.139251282861,0.184989358575,2.76,-2.08401451401,0.0436726742108,1.38,0.346939524927,0.899157830727,1.38,0.920608972549,-0.0760266718794,1.38,-1.12174947583,-0.721440506021,1.38,0.706375568872,-0.642507398622
2.78,-0.061294127634,0.166041595615,2.78,-0.061294127634,0.148040038778,2.78,-0.51832538881,0.408256262182,2.78,-0.470122872983,0.0480704013235,2.78,0.278503854308,0.902784319929,2.78,-0.149367860256,0.178859894268,2.78,-0.061294127634,0.430494879669,2.78,-0.139251282861,0.187774384232,2.78,-2.02569542079,0.0847697735588,1.39,0.327301462923,0.895786625787,1.39,0.891449425937,-0.0850869638719,1.39,-1.21874960027,-0.709738010641,1.39,0.696854084264,-0.649523546888
2.8,-0.061294127634,0.167267478167,2.8,-0.0517726430262,0.149170706484,2.8,-0.732558792486,0.420765103995,2.8,-0.450484810979,0.0572764781631,2.8,0.317779978315,0.896821481603,2.8,-0.139251282861,0.181746085699,2.8,-0.0714107050298,0.431821927996,2.8,-0.120208313645,0.190368980197,2.8,-2.01617393618,0.125188467128,1.4,0.317779978315,0.892561218581,1.4,0.891449425937,-0.0940014581312,1.4,-1.2865901781,-0.697211311749,1.4,0.687332599657,-0.656444480308
2.82,-0.061294127634,0.16849336072,2.82,-0.061294127634,0.150301374191,2.82,-0.965835165378,0.437749043574,2.82,-0.460006295587,0.0663813892288,2.82,0.336822947531,0.890275452344,2.82,-0.129729798253,0.18443589651,2.82,-0.061294127634,0.433148976322,2.82,-0.110091736249,0.192671980696,2.82,-2.02569542079,0.165607160698,1.41,0.327301462923,0.889335811375,1.41,0.881927941329,-0.102868344968,1.41,-1.2967067555,-0.684294827081,1.41,0.677216022261,-0.663267223417
2.84,-0.061294127634,0.169719243273,2.84,-0.0517726430262,0.151432041898,2.84,-1.13127096044,0.458720104832,2.84,-0.440963326371,0.0753910854484,2.84,0.356461009535,0.883342612774,2.84,-0.110091736249,0.186834111855,2.84,0.00654645019677,0.433696453097,2.84,-0.110091736249,0.194873815421,2.84,-2.06497154479,0.206513830354,1.42,0.327301462923,0.886062796746,1.42,0.900970910545,-0.111782839227,1.42,-1.32586630211,-0.671181961793,1.42,0.667694537653,-0.669991776217
2.86,-0.061294127634,0.170945125825,2.86,-0.061294127634,0.152562709604,2.86,-1.30622824011,0.483095096837,2.86,-0.430846748975,0.0841091862018,2.86,0.356461009535,0.876213392583,2.86,-0.100570251641,0.188940731734,2.86,-0.0714107050298,0.434345095645,2.86,-0.139251282861,0.197367245612,2.86,-2.03581199818,0.247521665784,1.43,0.327301462923,0.882789782117,1.43,0.900970910545,-0.120792548332,1.43,-1.35502584872,-0.657777501039,1.43,0.629013506434,-0.676475316437
2.88,-0.061294127634,0.172171008378,2.88,-0.061294127634,0.153788592157,2.88,-1.46214255056,0.510778804744,2.88,-0.450484810979,0.0929225018014,2.88,0.327301462923,0.869375767858,2.88,-0.0910487670335,0.190856921921,2.88,-0.0714107050298,0.435773309746,2.88,-0.158889344864,0.200348651889,2.88,-1.96737632756,0.287553549041,1.44,0.317779978315,0.87956437491,1.44,0.930130457156,-0.129948055171,1.44,-1.37406881794,-0.644132027705,1.44,0.599853959822,-0.682619653768
2.9,-0.061294127634,0.173396890931,2.9,-0.0714107050298,0.155115640484,2.9,-1.57878073701,0.54118803762,2.9,-0.450484810979,0.101932198021,2.9,0.346939524927,0.86263335798,2.9,-0.0910487670335,0.192677897261,2.9,-0.061294127634,0.437100358072,2.9,-0.178527406868,0.203722819407,2.9,-1.91917381174,0.326419050434,1.45,0.298141916312,0.876484765437,1.45,0.959290003768,-0.139395157476,1.45,-1.41334494195,-0.630194958906,1.45,0.580215897819,-0.688520003057
2.92,-0.061294127634,0.174622773483,2.92,-0.061294127634,0.15644268881,2.92,-1.60794028362,0.573055247826,2.92,-0.450484810979,0.110941894241,2.92,0.356461009535,0.855599352635,2.92,-0.120208313645,0.194790468068,2.92,-0.0517726430262,0.438231025779,2.92,-0.188048891476,0.20738858239,2.92,-1.86085471851,0.364219335737,1.46,0.288620431704,0.873550953697,1.46,0.969406581164,-0.1490386404,1.46,-1.38418539533,-0.616207307219,1.46,0.541534866599,-0.694128756879
2.94,-0.0517726430262,0.17575344119,2.94,-0.061294127634,0.157668571363,2.94,-1.75373801668,0.606672030829,2.94,-0.450484810979,0.11995159046,2.94,0.395737133542,0.848077371205,2.94,-0.129729798253,0.197289849187,2.94,-0.061294127634,0.439361693486,2.94,-0.197570376084,0.211244775066,2.94,-1.8019405325,0.400847288247,1.47,0.278503854308,0.870715332267,1.47,0.978928065771,-0.158780313635,1.47,-1.37406881794,-0.602416036153,1.47,0.531418289203,-0.699493522658
2.96,-0.061294127634,0.176884108896,2.96,-0.0517726430262,0.158799239069,2.96,-1.8120571099,0.642329982095,2.96,-0.41180377976,0.128574476368,2.96,0.414780102758,0.839972198842,2.96,-0.139251282861,0.199979659998,2.96,-0.0714107050298,0.440688741812,2.96,-0.217208438087,0.215392563207,2.96,-1.7924190479,0.436790884051,1.48,0.278503854308,0.867930293724,1.48,0.969406581164,-0.16852198687,1.48,-1.39370687994,-0.588577157664,1.48,0.531418289203,-0.70480770555
2.98,-0.0517726430262,0.178014776603,2.98,-0.061294127634,0.159929906776,2.98,-1.85073814112,0.678957934605,2.98,-0.392165717756,0.136614171343,2.98,0.40525861815,0.831771811632,2.98,-0.120208313645,0.202574255963,2.98,-0.0517726430262,0.441920575293,2.98,-0.246367984699,0.220028327435,2.98,-1.82157859451,0.472930860475,1.49,0.278503854308,0.865145255181,1.49,0.940247034552,-0.178070254948,1.49,-1.36454733333,-0.574785886597,1.49,0.541534866599,-0.710172471329
3,-0.0517726430262,0.179050229464,3,-0.0422511584184,0.160965359637,3,-1.8120571099,0.715585887115,3,-0.392165717756,0.144457485698,3,0.40525861815,0.82366663927,3,-0.0910487670335,0.20468682677,3,-0.0517726430262,0.442956028153,3,-0.255889469307,0.225050901975,3,-1.87037620312,0.509850408451,1.5,0.298141916312,0.862262026328,1.5,0.920608972549,-0.187374534984,1.5,-1.36454733333,-0.561140413264,1.5,0.560577835815,-0.715683034841
3.02,-0.0517726430262,0.180085682324,3.02,-0.0517726430262,0.161905597651,3.02,-1.8019405325,0.751725863539,3.02,-0.382644233148,0.152205585207,3.02,0.414780102758,0.81546625206,3.02,-0.0422511584184,0.206019826025,,,,3.02,-0.255889469307,0.230168691361,3.02,-1.89001426513,0.547454313134,1.51,0.307663400919,0.859232999742,1.51,0.900970910545,-0.196482434399,1.51,-1.35502584872,-0.547542547354,1.51,0.560577835815,-0.721288813199
3.04,-0.0422511584184,0.181025920339,3.04,-0.0517726430262,0.162941050512,3.04,-1.87037620312,0.788449030895,3.04,-0.372527655752,0.159757304096,3.04,0.424896680153,0.807069484231,3.04,-0.0130916118069,0.206573253727,,,,3.04,-0.266006046702,0.235387646521,3.04,-1.87037620312,0.585058217816,1.52,0.317779978315,0.856105782846,1.52,0.911087487941,-0.205542726392,1.52,-1.37406881794,-0.53389707402,1.52,0.580215897819,-0.726992781867
3.06,-0.0422511584184,0.181870943507,3.06,-0.0422511584184,0.163881288526,3.06,-1.92869529634,0.82643974589,3.06,-0.372527655752,0.167207857211,3.06,0.443939649369,0.798381120936,3.06,0.0261845122004,0.206442324723,,,,3.06,-0.285049015918,0.240898197148,3.06,-1.89001426513,0.622662122499,1.53,0.336822947531,0.852832768216,1.53,0.911087487941,-0.214653601271,1.53,-1.35502584872,-0.520251600687,1.53,0.599853959822,-0.732893131155
3.08,-0.0517726430262,0.182811181521,3.08,-0.0517726430262,0.16482152654,3.08,-1.99653587418,0.865692057595,3.08,-0.382644233148,0.1747595761,3.08,0.47309919598,0.789210732483,3.08,0.0452274814161,0.205728204787,,,,3.08,-0.295165593314,0.24670034324,3.08,-1.93821678095,0.660944432959,1.54,0.346939524927,0.849413955854,1.54,0.930130457156,-0.223859690996,1.54,-1.35502584872,-0.5067013422,1.54,0.629013506434,-0.739037468487
3.1,-0.0517726430262,0.183846634382,3.1,-0.0517726430262,0.165856979401,3.1,-1.93821678095,0.905039584146,3.1,-0.382644233148,0.182412460763,3.1,0.483215773376,0.779647582789,3.1,0.0553440588119,0.204722489385,,,,3.1,-0.324325139925,0.252895250572,3.1,-1.97749290496,0.700101529818,1.55,0.356461009535,0.845896953182,1.55,0.969406581164,-0.233357376188,1.55,-1.32586630211,-0.493296881446,1.55,0.638534991042,-0.745375210974
3.12,-0.0422511584184,0.184786872396,3.12,-0.061294127634,0.166987647108,3.12,-1.96737632756,0.944095515231,3.12,-0.382644233148,0.190065345426,3.12,0.47309919598,0.770084433095,3.12,0.0553440588119,0.203615608208,,,,3.12,-0.343368109141,0.259572183063,3.12,-1.98701438957,0.739746602764,1.56,0.356461009535,0.842332343086,1.56,0.998566127775,-0.243197239733,1.56,-1.31574972472,-0.480088801312,1.56,0.638534991042,-0.751760560884
3.14,-0.0517726430262,0.185727110411,3.14,-0.0517726430262,0.168118314814,3.14,-1.89953574973,0.982764636004,3.14,-0.382644233148,0.197718230089,3.14,0.454056226765,0.760812878868,3.14,0.0743870280276,0.20231829734,,,,3.14,-0.363006171145,0.266635925866,3.14,-1.95785484296,0.779195295089,1.57,0.36657758693,0.838717150104,1.57,1.0467686436,-0.25342391359,1.57,-1.2770686935,-0.467124709221,1.57,0.638534991042,-0.758145910795
3.16,-0.061294127634,0.186857778117,3.16,-0.061294127634,0.169248982521,3.16,-1.8316951719,1.02007694522,3.16,-0.363006171145,0.205174734132,3.16,0.434418164761,0.751928134953,3.16,0.0845036054234,0.200729391005,,,,3.16,-0.382644233148,0.274092429909,3.16,-1.96737632756,0.818447606794,1.58,0.36657758693,0.835051374235,1.58,1.06640670561,-0.263989790336,1.58,-1.2967067555,-0.454255831976,1.58,0.599853959822,-0.764337855549
3.18,-0.061294127634,0.18808366067,3.18,-0.061294127634,0.170474865073,3.18,-1.78289756329,1.05622287257,3.18,-0.363006171145,0.212434857555,3.18,0.414780102758,0.743436152278,3.18,0.0940250900312,0.198944104051,,,,3.18,-0.401687202364,0.281935744264,3.18,-1.93821678095,0.857503537879,1.59,0.376099071538,0.831337990942,1.59,1.07592819021,-0.274701464815,1.59,-1.2865901781,-0.441339347308,1.59,0.580215897819,-0.770238204837
3.2,-0.061294127634,0.189309543223,3.2,-0.0517726430262,0.17160553278,3.2,-1.77278098589,1.09177965806,3.2,-0.353484686537,0.219599766131,3.2,0.424896680153,0.735039384448,3.2,0.0940250900312,0.19706360225,,,,3.2,-0.41180377976,0.290070654085,3.2,-1.85073814112,0.8953930871,1.6,0.385620556146,0.827529392804,1.6,1.07592819021,-0.285460746717,1.6,-1.23838766228,-0.428714458106,1.6,0.560577835815,-0.775942173506
3.22,-0.0714107050298,0.190636591549,3.22,-0.061294127634,0.172736200487,3.22,-1.71446189267,1.12665208685,3.22,-0.343368109141,0.226568294088,3.22,0.443939649369,0.726351021153,3.22,0.0845036054234,0.195278315296,,,,3.22,-0.440963326371,0.298598325146,3.22,-1.78289756329,0.931729444144,1.61,0.395737133542,0.823622604356,1.61,1.06640670561,-0.296172421196,1.61,-1.22827108488,-0.41638116437,1.61,0.531418289203,-0.781402154131
3.24,-0.0714107050298,0.19206480565,3.24,-0.0517726430262,0.173866868193,3.24,-1.69541892345,1.16075089501,3.24,-0.31420856253,0.233144060805,3.24,0.443939649369,0.717472228166,3.24,0.0845036054234,0.193588243187,,,,3.24,-0.450484810979,0.30751280652,3.24,-1.75373801668,0.967095799944,1.62,0.424896680153,0.819519435287,1.62,1.0467686436,-0.306738297942,1.62,-1.22827108488,-0.404098453521,1.62,0.531418289203,-0.786716337023
3.26,-0.061294127634,0.193391853977,3.26,-0.0422511584184,0.174807106208,3.26,-1.70494040806,1.19475448833,3.26,-0.295165593314,0.239237802363,3.26,0.424896680153,0.708783864871,3.26,0.0743870280276,0.191999336853,,,,3.26,-0.450484810979,0.31652250274,3.26,-1.69541892345,1.00158736935,1.63,0.443939649369,0.815175253639,1.63,1.01760909699,-0.317060186645,1.63,-1.20922811567,-0.391910957518,1.63,0.521896804596,-0.791982912492
3.28,-0.061294127634,0.194617736529,3.28,-0.0517726430262,0.175747344222,3.28,-1.68530234606,1.22865691587,3.28,-0.285049015918,0.245039948456,3.28,0.395737133542,0.700577526734,3.28,0.0648655434197,0.190606811138,,,,3.28,-0.450484810979,0.325532198959,3.28,-1.5496211904,1.03403777048,1.64,0.47309919598,0.810590059413,1.64,1.00808761238,-0.327188670192,1.64,-1.20922811567,-0.379818676362,1.64,0.531418289203,-0.797249487961
3.3,-0.061294127634,0.195843619082,3.3,-0.0517726430262,0.176782797083,3.3,-1.74362143928,1.26294615372,3.3,-0.27552753131,0.250645713928,3.3,0.376099071538,0.692859164683,3.3,0.0743870280276,0.189214285424,,,,3.3,-0.440963326371,0.334446680333,3.3,-1.31574972472,1.06269147963,1.65,0.492737257984,0.805760877143,1.65,0.998566127775,-0.337221938893,1.65,-1.20922811567,-0.367726395205,1.65,0.541534866599,-0.80261425374
3.32,-0.061294127634,0.197069501635,3.32,-0.0422511584184,0.177723035097,3.32,-1.73409995467,1.29772336766,3.32,-0.295165593314,0.256352645174,3.32,0.36657758693,0.685432398098,3.32,0.0553440588119,0.187916974555,,,,3.32,-0.450484810979,0.343361161706,3.32,-0.994994711989,1.085798924,1.66,0.521896804596,0.80068770683,1.66,0.988449550379,-0.347157017283,1.66,-1.19911153827,-0.355684696935,1.66,0.560577835815,-0.808124817252
3.34,-0.061294127634,0.198295384187,3.34,-0.061294127634,0.178758487958,3.34,-1.69541892345,1.33201855644,3.34,-0.304687077922,0.262351171887,3.34,0.346939524927,0.67829722698,3.34,0.0553440588119,0.186810093379,,,,3.34,-0.450484810979,0.352370857926,3.34,-0.664718214655,1.10239605327,1.67,0.531418289203,0.795421131361,1.67,0.988449550379,-0.357041512787,1.67,-1.18959005366,-0.343741188976,1.67,0.580215897819,-0.81382878592
3.36,-0.0517726430262,0.199426051894,3.36,-0.0422511584184,0.179793940818,3.36,-1.66625937684,1.36563533944,3.36,-0.333846624533,0.268736508911,3.36,0.346939524927,0.671358436481,3.36,0.0648655434197,0.185607997357,,,,3.36,-0.450484810979,0.361380554145,3.36,-0.372527655752,1.11276851197,1.68,0.531418289203,0.790106948469,1.68,0.978928065771,-0.366878400868,1.68,-1.20922811567,-0.331747098129,1.68,0.599853959822,-0.819729135208
3.38,-0.0517726430262,0.200461504754,3.38,-0.0517726430262,0.180734178833,3.38,-1.559142675,1.39788935996,3.38,-0.333846624533,0.275413441402,3.38,0.346939524927,0.664419645983,3.38,0.0845036054234,0.184114305868,,,,3.38,-0.460006295587,0.370485465211,3.38,-0.120208313645,1.11769587167,1.69,0.551056351207,0.784694575267,1.69,0.940247034552,-0.37647427637,1.69,-1.19911153827,-0.319705399859,1.69,0.60937544443,-0.825775282229
3.4,-0.061294127634,0.201592172461,3.4,-0.0517726430262,0.181769631693,3.4,-1.42286642655,1.42770945098,3.4,-0.333846624533,0.282090373892,3.4,0.327301462923,0.657677236104,3.4,0.0845036054234,0.18242423376,,,,3.4,-0.470122872983,0.379786756897,3.4,0.103546574639,1.11786248906,1.7,0.570694413211,0.779085821445,1.7,0.911087487941,-0.385730948982,1.7,-1.22827108488,-0.307568486744,1.7,0.599853959822,-0.831821429251
3.42,-0.061294127634,0.202818055014,3.42,-0.061294127634,0.1829002994,3.42,-1.2967067555,1.4549051828,3.42,-0.324325139925,0.288672091537,3.42,0.317779978315,0.651226421692,3.42,0.0845036054234,0.180734161651,,,,3.42,-0.460006295587,0.389088048582,3.42,0.278503854308,1.11404198477,1.71,0.60937544443,0.773185472157,1.71,0.881927941329,-0.394696026128,1.71,-1.19911153827,-0.295431573628,1.71,0.589737382426,-0.837769385962
3.44,-0.0517726430262,0.20394872272,3.44,-0.061294127634,0.184126181952,3.44,-1.26754720889,1.48054772244,3.44,-0.31420856253,0.295057428562,3.44,0.259460885092,0.645454013058,3.44,0.0940250900312,0.178948874697,,,,3.44,-0.450484810979,0.398192959648,3.44,0.395737133542,1.10729957489,1.72,0.629013506434,0.766993527402,1.72,0.852768394718,-0.403369507809,1.72,-1.18959005366,-0.283488065668,1.72,0.589737382426,-0.843666759786
3.46,-0.061294127634,0.205079390427,3.46,-0.0517726430262,0.185256849659,3.46,-1.23838766228,1.50560707115,3.46,-0.295165593314,0.30115117012,3.46,0.201141791869,0.640847986288,3.46,0.0845036054234,0.177163587742,,,,3.46,-0.450484810979,0.407202655868,3.46,0.502258742592,1.09831961613,1.73,0.638534991042,0.760655784915,1.73,0.81349227071,-0.411700811136,1.73,-1.19911153827,-0.271544557708,1.73,0.589737382426,-0.84956413361
3.48,-0.0321345810225,0.206013677514,3.48,-0.0517726430262,0.18629230252,3.48,-1.22827108488,1.53027365863,3.48,-0.27552753131,0.306858101366,3.48,0.220184761085,0.636634720758,3.48,0.0845036054234,0.175473515634,,,,3.48,-0.460006295587,0.416307566933,3.48,0.667694537653,1.08662008332,1.74,0.648056475649,0.754222827581,1.74,0.764694662095,-0.4195917458,1.74,-1.22827108488,-0.259407644593,1.74,0.589737382426,-0.855461507435
3.5,-0.0226130964147,0.206561154288,3.5,-0.0517726430262,0.18732775538,3.5,-1.23838766228,1.5549402461,3.5,-0.255889469307,0.312172271372,3.5,0.278503854308,0.631647834605,3.5,0.0940250900312,0.173688228679,,,,3.5,-0.450484810979,0.425412477999,3.5,0.862289879326,1.07132023915,1.75,0.658173053045,0.747691679938,1.75,0.74565169288,-0.427143477575,1.75,-1.16043050705,-0.247464136633,1.75,0.589737382426,-0.861358881259
3.52,-0.0321345810225,0.207108631062,3.52,-0.0517726430262,0.188363208241,3.52,-1.19911153827,1.5793152381,3.52,-0.226729922695,0.316998465292,3.52,0.356461009535,0.625298185966,3.52,0.0940250900312,0.171807726879,,,,3.52,-0.450484810979,0.434422174218,3.52,0.959290003768,1.05310444032,1.76,0.658173053045,0.741109949408,1.76,0.726013630876,-0.434501804193,1.76,-1.18006856905,-0.235761641253,1.76,0.589737382426,-0.867256255083
3.54,-0.0226130964147,0.207656107837,3.54,-0.0422511584184,0.189303446255,3.54,-1.18959005366,1.60320225402,3.54,-0.226729922695,0.321533063746,3.54,0.395737133542,0.617776204535,3.54,0.103546574639,0.169832010232,,,,3.54,-0.440963326371,0.443336655592,3.54,1.0467686436,1.03304385385,1.77,0.658173053045,0.734528218877,1.77,0.706375568872,-0.441663750192,1.77,-1.16995199166,-0.224011538449,1.77,0.580215897819,-0.873106021484
3.56,-0.0130916118069,0.208013154919,3.56,-0.0517726430262,0.19024368427,3.56,-1.15090902244,1.62660724478,3.56,-0.217208438087,0.325972447354,3.56,0.40525861815,0.609766247018,3.56,0.0940250900312,0.167856293585,,,,3.56,-0.41180377976,0.451864326653,3.56,1.16340683005,1.01094209911,1.78,0.658173053045,0.727946488347,1.78,0.677216022261,-0.448581708148,1.78,-1.15090902244,-0.212407233378,1.78,0.589737382426,-0.878955787886
3.58,-0.0130916118069,0.208274987155,3.58,-0.0517726430262,0.19127913713,3.58,-1.11163289844,1.64923266399,3.58,-0.207686953479,0.33022140127,3.58,0.395737133542,0.601756289501,3.58,0.0940250900312,0.165975791785,,,,3.58,-0.401687202364,0.459999236475,3.58,1.26100204728,0.98669801034,1.79,0.658173053045,0.721364757816,1.79,0.638534991042,-0.455160463214,1.79,-1.14079244505,-0.200948726041,1.79,0.589737382426,-0.88485316171
3.6,-0.0321345810225,0.208727249083,3.6,-0.0517726430262,0.192314589991,3.6,-1.08247335182,1.6711737265,3.6,-0.197570376084,0.334273974565,3.6,0.36657758693,0.594133142297,3.6,0.103546574639,0.164000075138,,,,3.6,-0.392165717756,0.467937765676,3.6,1.40679978034,0.960019992064,1.8,0.648056475649,0.714833610173,1.8,0.618896929038,-0.461447622815,1.8,-1.11163289844,-0.189686599324,1.8,0.580215897819,-0.890702928111
3.62,-0.0517726430262,0.209566321324,3.62,-0.0517726430262,0.193350042851,3.62,-1.06343038261,1.69263276384,3.62,-0.178527406868,0.338034952395,3.62,0.356461009535,0.586902756332,3.62,0.0845036054234,0.162119573337,,,,3.62,-0.382644233148,0.475685865185,3.62,1.64007615323,0.929551232729,1.81,0.638534991042,0.708400652839,1.81,0.60937544443,-0.467588984682,1.81,-1.13127096044,-0.178472080029,1.81,0.570694413211,-0.896457479666
3.64,-0.061294127634,0.21069698903,3.64,-0.0517726430262,0.194385495712,3.64,-0.975951742774,1.71302658509,3.64,-0.139251282861,0.341212739292,3.64,0.385620556146,0.579481940675,3.64,0.0845036054234,0.160429501229,,,,3.64,-0.363006171145,0.483142369228,3.64,2.00962877457,0.893054183451,1.82,0.638534991042,0.702015302929,1.82,0.60937544443,-0.473682739126,1.82,-1.10211141383,-0.167305168158,1.82,0.551056351207,-0.902066233488
3.66,-0.061294127634,0.211922871583,3.66,-0.0517726430262,0.195420948572,3.66,-0.839675494324,1.73118285746,3.66,-0.110091736249,0.343706169483,3.66,0.414780102758,0.571477934086,3.66,0.0845036054234,0.15873942912,,,,3.66,-0.353484686537,0.490307277805,3.66,2.27206469407,0.850237248764,1.83,0.648056475649,0.695582345595,1.83,0.629013506434,-0.479874683881,1.83,-1.10211141383,-0.15628405402,1.83,0.541534866599,-0.907529189577
3.68,-0.0517726430262,0.21305353929,3.68,-0.0517726430262,0.196456401433,3.68,-0.654601637259,1.74612562878,3.68,-0.0809321896377,0.345616408742,3.68,0.414780102758,0.563182332031,3.68,0.0845036054234,0.157049357012,,,,3.68,-0.343368109141,0.497275805761,3.68,2.32086230269,0.804307978797,1.84,0.648056475649,0.689101780839,1.84,0.599853959822,-0.486019021212,1.84,-1.10211141383,-0.145262939881,1.84,0.551056351207,-0.912992145666
3.7,-0.0422511584184,0.213993777304,3.7,-0.061294127634,0.197587069139,3.7,-0.41180377976,1.75678968295,3.7,-0.0321345810225,0.346747076449,3.7,0.424896680153,0.554785564202,3.7,0.0648655434197,0.155555665524,,,,3.7,-0.31420856253,0.503851572478,3.7,2.3500218493,0.757599137277,1.85,0.638534991042,0.682668823505,1.85,0.560577835815,-0.49182118019,1.85,-1.0437923206,-0.134533421209,1.85,0.551056351207,-0.918502709179
3.72,-0.0422511584184,0.214838800472,3.72,-0.061294127634,0.198812951692,3.72,-0.0714107050298,1.7616218278,3.72,0.0160679348046,0.346907742911,3.72,0.414780102758,0.546388796373,3.72,0.0553440588119,0.154353569501,,,,3.72,-0.295165593314,0.509945314036,3.72,2.22386217825,0.711860297001,1.86,0.648056475649,0.676235866172,1.86,0.521896804596,-0.497233553392,1.86,-1.07295186722,-0.12394970027,1.86,0.551056351207,-0.924013272691
3.74,-0.061294127634,0.215874253333,3.74,-0.0422511584184,0.199848404552,3.74,0.142822698646,1.76090770786,3.74,0.0357059968082,0.346390003595,3.74,0.395737133542,0.53828362401,3.74,0.0553440588119,0.153246688325,,,,3.74,-0.27552753131,0.515652245283,3.74,2.19470263163,0.667674648902,1.87,0.658173053045,0.669704718529,1.87,0.492737257984,-0.502306723705,1.87,-1.0437923206,-0.113365979331,1.87,0.570694413211,-0.929622026513
3.76,-0.100570251641,0.217492897126,3.76,-0.0517726430262,0.200788642567,3.76,0.36657758693,1.75581370501,3.76,0.0452274814161,0.345580668813,3.76,0.376099071538,0.530565261959,3.76,0.0553440588119,0.152139807149,,,,3.76,-0.246367984699,0.520871200443,3.76,2.11674547641,0.624560167822,1.88,0.648056475649,0.663173570885,1.88,0.483215773376,-0.507186488862,1.88,-1.0437923206,-0.102928056125,1.88,0.560577835815,-0.935278387758
3.78,-0.188048891476,0.220379088557,3.78,-0.0517726430262,0.201824095427,3.78,0.376099071538,1.74838693842,3.78,0.0553440588119,0.34457495341,3.78,0.346939524927,0.523334875994,3.78,0.0553440588119,0.151032925973,,,,3.78,-0.217208438087,0.525506964671,3.78,2.16554308502,0.581737282208,1.89,0.638534991042,0.656740613552,1.89,0.454056226765,-0.511872848863,1.89,-1.05331380521,-0.0924425254959,1.89,0.580215897819,-0.940982356426
3.8,-0.255889469307,0.224818472165,3.8,-0.0422511584184,0.202764333442,3.8,0.336822947531,1.74125771823,3.8,0.0743870280276,0.343277642542,3.8,0.336822947531,0.51649725127,3.8,0.0553440588119,0.149926044796,,,,3.8,-0.178527406868,0.52946432312,3.8,2.19470263163,0.538134825041,1.9,0.658173053045,0.650257073331,1.9,0.424896680153,-0.516267613397,1.9,-1.0437923206,-0.0819569948668,1.9,0.589737382426,-0.946832122827
3.82,-0.266006046702,0.230037427325,3.82,-0.0422511584184,0.20360935661,3.82,0.395737133542,1.73393211742,3.82,0.0845036054234,0.341688736207,3.82,0.336822947531,0.509760792319,3.82,0.0452274814161,0.148920329394,,,,3.82,-0.110091736249,0.532350514551,3.82,2.21374560085,0.494050342716,1.91,0.658173053045,0.643675342801,1.91,0.385620556146,-0.520320199579,1.91,-1.05331380521,-0.0714714642377,1.91,0.589737382426,-0.952729496651
3.84,-0.226729922695,0.234964787019,3.84,-0.061294127634,0.204644809471,3.84,0.502258742592,1.72495215866,3.84,0.113663152035,0.339707068633,3.84,0.336822947531,0.503024333369,3.84,0.0357059968082,0.148110994612,,,,3.84,-0.061294127634,0.53406437319,3.84,2.22386217825,0.449674264925,1.92,0.667694537653,0.637046004847,1.92,0.346939524927,-0.523982999984,1.92,-1.0437923206,-0.0609859336086,1.92,0.589737382426,-0.958626870476
3.86,-0.168410829472,0.238916194541,3.86,-0.0517726430262,0.205775477177,3.86,0.706375568872,1.71286581554,3.86,0.0648655434197,0.337921781678,3.86,0.346939524927,0.496186708644,3.86,0.0261845122004,0.147492089522,,,,3.86,-0.00297503441107,0.534707064811,3.86,2.18458605424,0.405589782601,1.93,0.677216022261,0.630321452048,1.93,0.317779978315,-0.5273065975,1.93,-1.0437923206,-0.0505480104026,1.93,0.599853959822,-0.964574827187
3.88,-0.120208313645,0.241802385972,3.88,-0.061294127634,0.206906144884,3.88,0.930130457156,1.69650075528,3.88,0.00654645019677,0.337207661742,3.88,0.346939524927,0.489247918146,3.88,0.0357059968082,0.146873184432,,,,3.88,0.0452274814161,0.534284540341,3.88,2.3303837873,0.360440084185,1.94,0.687332599657,0.623498708938,1.94,0.278503854308,-0.530288016663,1.94,-1.05331380521,-0.0400624797735,1.94,0.580215897819,-0.970475176475
3.9,-0.149367860256,0.244498147711,3.9,-0.061294127634,0.208132027437,3.9,1.17352340744,1.67546421664,3.9,-0.110091736249,0.338243114603,3.9,0.336822947531,0.482410293421,3.9,0.0261845122004,0.146254279342,,,,3.9,0.0648655434197,0.533183610092,3.9,2.42797900453,0.312856456267,1.95,0.696854084264,0.616577775518,1.95,0.230301338481,-0.532832042627,1.95,-1.05331380521,-0.0295293417214,1.95,0.580215897819,-0.976277335453
3.92,-0.266006046702,0.24865188678,3.92,-0.0517726430262,0.209262695143,3.92,1.38716171833,1.64985736538,3.92,-0.207686953479,0.3414209015,3.92,0.327301462923,0.475769049316,3.92,0.0357059968082,0.145635374251,,,,3.92,0.0743870280276,0.531791084378,3.92,2.46666003575,0.263910065864,1.96,0.696854084264,0.609609234676,1.96,0.171982245258,-0.534843460546,1.96,-1.034270836,-0.0190914185153,1.96,0.580215897819,-0.982079494432
3.94,-0.41180377976,0.255429985045,3.94,-0.0517726430262,0.210298148004,3.94,1.53295945139,1.62065615368,3.94,-0.266006046702,0.346157831502,3.94,0.327301462923,0.469223020058,3.94,0.0357059968082,0.144921254315,,,,3.94,0.0845036054234,0.530202178043,3.94,2.44702197374,0.214773245769,1.97,0.706375568872,0.60259308641,1.97,0.113663152035,-0.536271687532,1.97,-1.034270836,-0.00874871015534,1.97,0.589737382426,-0.987929260833
3.96,-0.567122997425,0.265219252817,3.96,-0.0517726430262,0.211333600864,3.96,1.66923569984,1.58863420217,3.96,-0.27552753131,0.351573167282,3.96,0.346939524927,0.462480610179,3.96,0.0357059968082,0.144207134379,,,,3.96,0.0940250900312,0.528416891089,3.96,2.53509570636,0.164952068968,1.98,0.706375568872,0.595529330721,1.98,0.0553440588119,-0.537116723587,1.98,-1.034270836,0.00159399820463,1.98,0.589737382426,-0.993826634657
3.98,-0.712920730482,0.278019690096,3.98,-0.0517726430262,0.212369053725,3.98,1.72755479306,1.55466629724,3.98,-0.266006046702,0.356988503062,3.98,0.336822947531,0.455642985455,3.98,0.0160679348046,0.143689395063,,,,3.98,0.113663152035,0.526340008668,3.98,2.58329822219,0.113768129683,1.99,0.706375568872,0.588465575033,1.99,-0.0226130964147,-0.537280378399,1.99,-1.0241542586,0.0118861236776,1.99,0.589737382426,-0.999724008481
4,-0.781356401101,0.292962461412,4,-0.0517726430262,0.213404506585,4,1.68887376184,1.52050201169,4,-0.226729922695,0.361915862756,4,0.327301462923,0.44900174135,4,0.0160679348046,0.143368036367,,,,4,0.123184636643,0.523971530781,4,2.6225743462,0.061709403999,2,0.706375568872,0.581401819344,2,-0.0910487670335,-0.536712069081,2,-1.034270836,0.0221782491506,2,0.589737382426,-1.00562138231
4.02,-0.829558916928,0.309071614592,4.02,-0.0517726430262,0.214439959446,4.02,1.65019273062,1.48711134677,4.02,-0.178527406868,0.365968436052,4.02,0.356461009535,0.442164116626,4.02,0.00654645019677,0.143141892517,,,,4.02,0.132706121251,0.521412623202,4.02,2.60293628419,0.00945429769505,2.01,0.706375568872,0.574338063655,2.01,-0.139251282861,-0.535560568832,2.01,-0.994994711989,0.0323245768905,2.01,0.589737382426,-1.01151875613
4.04,-0.887878010151,0.326245983863,4.04,-0.061294127634,0.215570627152,4.04,1.65019273062,1.45410749216,4.04,-0.100570251641,0.368759412637,4.04,0.36657758693,0.434933730661,4.04,0.00654645019677,0.143010963513,,,,4.04,0.161865667862,0.518466905311,4.04,2.57377673758,-0.0423128325227,2.02,0.696854084264,0.56732191539,2.02,-0.207686953479,-0.53382587765,2.02,-1.00511128939,0.0423251068974,2.02,0.589737382426,-1.01741612995
4.06,-0.917037556763,0.344295139532,4.06,-0.0517726430262,0.216701294859,4.06,1.61091660662,1.42149639878,4.06,-0.00297503441107,0.369794865497,4.06,0.385620556146,0.42741174923,4.06,-0.00297503441107,0.142975249355,,,,4.06,0.161865667862,0.515229591954,4.06,2.56425525298,-0.0936931524283,2.03,0.706375568872,0.560305767124,2.03,-0.266006046702,-0.531457412649,2.03,-1.034270836,0.0525220175243,2.03,0.580215897819,-1.02326589636
4.08,-1.01463277399,0.363611842839,4.08,-0.0517726430262,0.21773674772,4.08,1.52343796678,1.39015285305,4.08,0.0845036054234,0.368979579787,4.08,0.395737133542,0.419598172333,4.08,-0.0130916118069,0.143135915817,,,,4.08,0.171982245258,0.511891112823,4.08,2.72909595525,-0.146626664511,2.04,0.706375568872,0.553242011435,2.04,-0.343368109141,-0.52841054187,2.04,-1.0241542586,0.0628141429973,2.04,0.580215897819,-1.02906805533
4.1,-1.05331380521,0.384291308632,4.1,-0.0422511584184,0.218676985734,4.1,1.45559738895,1.36036249949,4.1,0.161865667862,0.366515887054,4.1,0.356461009535,0.412076190903,4.1,-0.0226130964147,0.143492962899,,,,4.1,0.171982245258,0.508451467918,4.1,2.6124577688,-0.200042201751,2.05,0.726013630876,0.546080065436,2.05,-0.450484810979,-0.52444127727,2.05,-0.985473227382,0.0728622804272,2.05,0.589737382426,-1.03491782173
4.12,-1.16043050705,0.406428751754,4.12,-0.0517726430262,0.219617223749,4.12,1.34848068711,1.33232171873,4.12,0.191025214473,0.362986978231,4.12,0.376099071538,0.404750590092,4.12,-0.0130916118069,0.143850009982,,,,4.12,0.161865667862,0.505112988786,4.12,2.57377673758,-0.251904546815,2.06,0.74565169288,0.538721738818,2.06,-0.528441966206,-0.519546643384,2.06,-1.00511128939,0.0828152030111,2.06,0.580215897819,-1.04076758814
4.14,-1.16995199166,0.429732576741,4.14,-0.0517726430262,0.220652676609,4.14,1.32884262511,1.30554848561,4.14,0.230301338481,0.358773712701,4.14,0.483215773376,0.396157441643,4.14,-0.0130916118069,0.144111842218,,,,4.14,0.142822698646,0.502066105121,4.14,2.49581958236,-0.302600510014,2.07,0.755173177487,0.531217614466,2.07,-0.606399121432,-0.513872437945,2.07,-0.985473227382,0.0927681255949,2.07,0.580215897819,-1.04656974711
4.16,-1.16043050705,0.453036401728,4.16,-0.0422511584184,0.221592914623,4.16,1.29016159389,1.27935844342,4.16,0.2689823697,0.35378087562,4.16,0.560577835815,0.385719505551,4.16,-0.0130916118069,0.144373674454,,,,4.16,0.142822698646,0.499209651148,4.16,2.37918139591,-0.351350519797,2.08,0.774811239491,0.523567692381,2.08,-0.674239699263,-0.507469243842,2.08,-0.975951742774,0.102575250446,2.08,0.580215897819,-1.05237190609
4.18,-1.18959005366,0.476536607335,4.18,-0.0517726430262,0.222533152638,4.18,1.33895920251,1.25306723545,4.18,0.298141916312,0.348109632759,4.18,0.638534991042,0.373728377282,4.18,-0.0321345810225,0.144825936382,,,,4.18,0.142822698646,0.496353197175,4.18,2.40834094252,-0.399225743181,2.09,0.784332724099,0.515771972563,2.09,-0.732558792486,-0.500435251383,2.09,-0.946197103374,0.112185994676,2.09,0.580215897819,-1.05817406507
4.2,-1.22827108488,0.500715218721,4.2,-0.0517726430262,0.223568605498,4.2,1.3193211405,1.22648443202,4.2,0.336822947531,0.341759984121,4.2,0.658173053045,0.360761296842,4.2,-0.0422511584184,0.145569793777,,,,4.2,0.142822698646,0.493496743203,4.2,2.32086230269,-0.446517775633,2.1,0.784332724099,0.507928645322,2.1,-0.790877885709,-0.492818067992,2.1,-0.936675618766,0.121600358287,2.1,0.580215897819,-1.06397622405
4.22,-1.23838766228,0.525381806192,4.22,-0.0517726430262,0.224604058359,4.22,1.29016159389,1.20038960468,4.22,0.346939524927,0.334922359396,4.22,0.687332599657,0.347306240315,4.22,-0.0714107050298,0.146706412411,,,,4.22,0.161865667862,0.490449859537,4.22,2.17506456963,-0.491477044357,2.11,0.794449301495,0.500034735194,2.11,-0.790877885709,-0.484909289135,2.11,-0.897994587547,0.130773709319,2.11,0.560577835815,-1.06968019272
4.24,-1.26754720889,0.550441154904,4.24,-0.0517726430262,0.225639511219,4.24,1.21220443866,1.17536594436,4.24,0.385620556146,0.327596758586,4.24,0.687332599657,0.333559588321,4.24,-0.0714107050298,0.148134626512,,,,4.24,0.171982245258,0.487111380406,4.24,2.14590502302,-0.534686740283,2.12,0.794449301495,0.492090242179,2.12,-0.849196978932,-0.476708914812,2.12,-0.878356525543,0.139655464884,2.12,0.551056351207,-1.07523836365
4.26,-1.24790914688,0.575595718462,4.26,-0.0517726430262,0.22667496408,4.26,1.15388534544,1.15170504651,4.26,0.434418164761,0.319396371377,4.26,0.667694537653,0.320009316948,4.26,-0.0910487670335,0.149759221232,,,,4.26,0.161865667862,0.483772901275,4.26,2.14590502302,-0.577604840743,2.13,0.784332724099,0.484196332051,2.13,-0.868835040936,-0.468118754713,2.13,-0.849196978932,0.148293232407,2.13,0.560577835815,-1.08079653459
4.28,-1.20922811567,0.600167091087,4.28,-0.0517726430262,0.227710416941,4.28,1.15388534544,1.12862733961,4.28,0.463577711373,0.310416412615,4.28,0.667694537653,0.306655426195,4.28,-0.100570251641,0.151675411419,,,,4.28,0.171982245258,0.480434422144,4.28,2.0971074144,-0.620034965118,2.14,0.794449301495,0.476302421923,2.14,-0.897994587547,-0.45928460657,2.14,-0.800399370317,0.156541214153,2.14,0.570694413211,-1.08645289583
4.3,-1.18006856905,0.624060057935,4.3,-0.0517726430262,0.228745869801,4.3,1.12472579883,1.10584122816,4.3,0.483215773376,0.300948477768,4.3,0.677216022261,0.293206320596,4.3,-0.120208313645,0.153883197072,,,,4.3,0.161865667862,0.477095943013,4.3,2.03878832118,-0.661393922474,2.15,0.794449301495,0.468357928908,2.15,-0.897994587547,-0.450304660695,2.15,-0.75219685449,0.164304195277,2.15,0.580215897819,-1.09220744739
4.32,-1.14079244505,0.647268668076,4.32,-0.0517726430262,0.229781322662,4.32,1.07592819021,1.08383468827,4.32,0.521896804596,0.290897351988,4.32,0.658173053045,0.279852429843,4.32,-0.139251282861,0.156477793037,,,,4.32,0.161865667862,0.473858629655,4.32,1.98999071257,-0.701681712811,2.16,0.794449301495,0.460413435893,2.16,-0.907516072155,-0.441277107396,2.16,-0.693877761267,0.171534568356,2.16,0.580215897819,-1.09800960637
4.34,-1.16043050705,0.670280897597,4.34,-0.0517726430262,0.230816775522,4.34,1.056885221,1.06250655416,4.34,0.551056351207,0.28016782043,4.34,0.658173053045,0.266688968782,4.34,-0.139251282861,0.159262818694,,,,4.34,0.161865667862,0.470621316298,4.34,1.88346910352,-0.740416310972,2.17,0.833130332714,0.452275537722,2.17,-0.917037556763,-0.432154339252,2.17,-0.635558668044,0.178181750502,2.17,0.570694413211,-1.10376415792
4.36,-1.15090902244,0.693394292891,4.36,-0.0517726430262,0.231852228383,4.36,1.0467686436,1.04147001551,4.36,0.589737382426,0.268759883094,4.36,0.677216022261,0.253335078029,4.36,-0.149367860256,0.162149010125,,,,4.36,0.161865667862,0.467384002941,4.36,1.80551194829,-0.77730612149,2.18,0.842651817322,0.443896626972,2.18,-0.946197103374,-0.422838165951,2.18,-0.548080028209,0.184099943983,2.18,0.551056351207,-1.10937291174
4.38,-1.13127096044,0.71621609272,4.38,-0.061294127634,0.232982896089,4.38,0.998566127775,1.0210166678,4.38,0.589737382426,0.256965135445,4.38,0.706375568872,0.239499162118,4.38,-0.149367860256,0.165136367331,,,,4.38,0.161865667862,0.464146689584,4.38,1.76683091707,-0.813029550143,2.19,0.842651817322,0.435470108799,2.19,-0.917037556763,-0.41352199265,2.19,-0.450484810979,0.189092768179,2.19,0.531418289203,-1.11478528494
4.4,-1.11163289844,0.738645131309,4.4,-0.0517726430262,0.234113563796,4.4,0.94976851916,1.00153332133,4.4,0.599853959822,0.245069222023,4.4,0.696854084264,0.225466865586,4.4,-0.149367860256,0.168123724536,,,,4.4,0.171982245258,0.460808210453,4.4,1.71803330845,-0.847878192399,2.2,0.862289879326,0.426945400316,2.2,-0.907516072155,-0.404399224506,2.2,-0.31420856253,0.192916235047,2.2,0.521896804596,-1.12005186041
4.42,-1.12174947583,0.760978955052,,,,4.42,0.930130457156,0.982734331568,4.42,0.599853959822,0.233072142826,4.42,0.687332599657,0.211624998747,4.42,-0.158889344864,0.171206296587,,,,4.42,0.161865667862,0.457469731321,4.42,1.67935227724,-0.881852048256,2.21,0.862289879326,0.418322501522,2.21,-0.907516072155,-0.395324063784,2.21,-0.188048891476,0.195427522317,2.21,0.512375319988,-1.12522322104
4.44,-1.07295186722,0.782925968482,,,,4.44,0.911087487941,0.964322152117,4.44,0.618896929038,0.220884633938,4.44,0.667694537653,0.198074727374,4.44,-0.178527406868,0.174580464104,,,,4.44,0.161865667862,0.454232417964,4.44,1.5722355754,-0.914367926782,2.22,0.842651817322,0.409797793039,2.22,-0.887878010151,-0.386347093373,2.22,-0.061294127634,0.196674237412,2.22,0.502258742592,-1.13029639135
4.46,-1.034270836,0.803998195514,,,,4.46,0.755173177487,0.947659545463,4.46,0.618896929038,0.208506695357,4.46,0.667694537653,0.184720836621,4.46,-0.188048891476,0.178246227088,,,,4.46,0.152344183254,0.451090319453,4.46,1.52343796678,-0.945324662204,2.23,0.81349227071,0.401517072599,2.23,-0.878356525543,-0.377515920694,2.23,0.0940250900312,0.1965105826,2.23,0.512375319988,-1.13536956166
4.48,-1.034270836,0.824683612234,,,,4.48,0.755173177487,0.932556081913,4.48,0.618896929038,0.196128756776,4.48,0.687332599657,0.171170565248,4.48,-0.188048891476,0.182007204917,,,,4.48,0.142822698646,0.448138650634,4.48,1.44548081156,-0.975013849987,2.24,0.803970786103,0.393429757315,2.24,-0.878356525543,-0.368732355439,2.24,0.191025214473,0.195085331078,2.24,0.521896804596,-1.14054092229
4.5,-0.946197103374,0.844488291628,,,,4.5,0.755173177487,0.917452618363,4.5,0.618896929038,0.183750818195,4.5,0.726013630876,0.157037102943,4.5,-0.188048891476,0.185768182747,,,,4.5,0.142822698646,0.445282196661,4.5,1.41632126494,-1.00363187075,2.25,0.794449301495,0.385437656877,2.25,-0.85871846354,-0.360046980493,2.25,0.239822823089,0.19293109089,2.25,0.521896804596,-1.14575989033
4.52,-0.868835040936,0.862638613071,,,,4.52,0.755173177487,0.902349154814,4.52,0.60937544443,0.171468094461,4.52,0.764694662095,0.142130020013,4.52,-0.188048891476,0.189529160576,,,,4.52,0.142822698646,0.442425742688,4.52,1.27052353189,-1.03050031872,2.26,0.774811239491,0.377591354172,2.26,-0.85871846354,-0.351459795858,2.26,0.278503854308,0.190339457503,2.26,0.512375319988,-1.15093125095
4.54,-0.732558792486,0.878652551405,,,,4.54,0.774811239491,0.887049310644,4.54,0.60937544443,0.159280585572,4.54,0.74565169288,0.127026556463,4.54,-0.178527406868,0.19319492356,,,,4.54,0.132706121251,0.439670454489,4.54,1.17352340744,-1.05494078811,2.27,0.764694662095,0.369893824664,2.27,-0.868835040936,-0.342822028336,2.27,0.298141916312,0.18745622865,2.27,0.502258742592,-1.15600442127
4.56,-0.606399121432,0.892042130544,,,,4.56,0.755173177487,0.871749466474,4.56,0.599853959822,0.14718829153,4.56,0.706375568872,0.112506283846,4.56,-0.178527406868,0.196765471697,,,,4.56,0.123184636643,0.43711154691,4.56,1.06640670561,-1.07734008924,2.28,0.774811239491,0.362196295156,2.28,-0.85871846354,-0.334184260813,2.28,0.327301462923,0.184329011754,2.28,0.483215773376,-1.16093179385
4.58,-0.41180377976,0.902224159556,,,,4.58,0.755173177487,0.856646002924,4.58,0.60937544443,0.135095997487,4.58,0.677216022261,0.0986703679342,4.58,-0.178527406868,0.200336019834,,,,4.58,0.132706121251,0.434552639331,4.58,0.978928065771,-1.09779343696,2.29,0.774811239491,0.354448182761,2.29,-0.887878010151,-0.325451278445,2.29,0.346939524927,0.180957806815,2.29,0.454056226765,-1.16561815385
4.6,-0.266006046702,0.909002257821,,,,4.6,0.755173177487,0.841542539374,4.6,0.60937544443,0.122908488598,4.6,0.667694537653,0.0852212623351,4.6,-0.178527406868,0.203906567972,,,,4.6,0.123184636643,0.431993731752,4.6,0.881927941329,-1.11640199703,2.3,0.774811239491,0.346700070366,2.3,-0.887878010151,-0.316572498343,2.3,0.385620556146,0.177295006409,2.3,0.443939649369,-1.17010813323
4.62,-0.217208438087,0.913834402669,,,,4.62,0.755173177487,0.826439075825,4.62,0.638534991042,0.110429384244,4.62,0.658173053045,0.0719625864281,4.62,-0.178527406868,0.207477116109,,,,4.62,0.132706121251,0.429434824173,4.62,0.784332724099,-1.13306460368,2.31,0.794449301495,0.338853767661,2.31,-0.849196978932,-0.307887123398,2.31,0.434418164761,0.173194812805,2.31,0.424896680153,-1.17445231488
4.64,-0.168410829472,0.917690595344,,,,4.64,0.784332724099,0.811044016809,4.64,0.658173053045,0.0974623038029,4.64,0.638534991042,0.0589955059873,4.64,-0.178527406868,0.211047664246,,,,4.64,0.132706121251,0.426780701748,4.64,0.677216022261,-1.14768009115,2.32,0.784332724099,0.330959857533,2.32,-0.85871846354,-0.299347546185,2.32,0.483215773376,0.168606643114,2.32,0.395737133542,-1.17855548394
4.66,-0.129729798253,0.920672001622,,,,4.66,0.823608848106,0.794964601087,4.66,0.648056475649,0.0844000085159,4.66,0.589737382426,0.0467127822526,4.66,-0.178527406868,0.214618212384,,,,4.66,0.132706121251,0.424126579323,4.66,0.60937544443,-1.16054600581,2.33,0.764694662095,0.323214720602,2.33,-0.849196978932,-0.290807968973,2.33,0.531418289203,0.163533472801,2.33,0.385620556146,-1.18246227239
4.68,-0.0714107050298,0.922683406655,,,,4.68,0.74565169288,0.779271995677,4.68,0.629013506434,0.0716293086951,4.68,0.570694413211,0.0351084642962,4.68,-0.178527406868,0.218188760521,,,,4.68,0.132706121251,0.421472456898,4.68,0.541534866599,-1.17205510892,2.34,0.74565169288,0.315662988827,2.34,-0.849196978932,-0.282315999184,2.34,0.589737382426,0.157927694443,2.34,0.376099071538,-1.18627087053
4.7,0.0160679348046,0.923236834357,,,,4.7,0.677216022261,0.765043318526,4.7,0.618896929038,0.0591502043404,4.7,0.541534866599,0.0239861714981,4.7,-0.178527406868,0.221759308659,,,,4.7,0.132706121251,0.418818334473,4.7,0.40525861815,-1.18152304377,2.35,0.726013630876,0.308304662209,2.35,-0.878356525543,-0.273678231661,2.35,0.667694537653,0.151640534843,2.35,0.36657758693,-1.18998425382
4.72,0.171982245258,0.921356332556,,,,4.72,0.618896929038,0.752082189013,4.72,0.618896929038,0.0467722657596,4.72,0.541534866599,0.0131554741661,4.72,-0.188048891476,0.225425071642,,,,4.72,0.132706121251,0.416164212048,4.72,0.376099071538,-1.18933662067,2.36,0.716492146268,0.301092133323,2.36,-0.839675494324,-0.265088071562,2.36,0.735535115484,0.144624386577,2.36,0.36657758693,-1.19365002969
4.74,0.317779978315,0.91645871032,,,,4.74,0.580215897819,0.740091060744,4.74,0.618896929038,0.0343943271789,4.74,0.531418289203,0.0024259426081,4.74,-0.197570376084,0.229281264318,,,,4.74,0.123184636643,0.413605304469,4.74,0.298141916312,-1.19607903055,2.37,0.706375568872,0.293977794747,2.37,-0.868835040936,-0.256545518886,2.37,0.774811239491,0.137072654802,2.37,0.36657758693,-1.19731580556
4.76,0.443939649369,0.908841514044,,,,4.76,0.589737382426,0.728391527942,4.76,0.618896929038,0.0220163885981,4.76,0.521896804596,-0.00810720832989,4.76,-0.197570376084,0.233232671839,,,,4.76,0.113663152035,0.411236826583,4.76,0.142822698646,-1.2004886767,2.38,0.696854084264,0.286961646482,2.38,-0.839675494324,-0.248002966209,2.38,0.823608848106,0.129080554364,2.38,0.376099071538,-1.20102918885
4.78,0.512375319988,0.89927836435,,,,4.78,0.521896804596,0.717275186071,4.78,0.629013506434,0.00953728424342,4.78,0.414780102758,-0.0174739774034,4.78,-0.188048891476,0.237088864515,,,,4.78,0.103546574639,0.409064729316,4.78,0.0743870280276,-1.20266077396,2.39,0.677216022261,0.280091295949,2.39,-0.849196978932,-0.239558603843,2.39,0.862289879326,0.120651060727,2.39,0.36657758693,-1.20474257215
4.8,0.551056351207,0.888644047638,,,,4.8,0.454056226765,0.707515655758,4.8,0.638534991042,-0.00313820073134,4.8,0.336822947531,-0.0249900079063,4.8,-0.197570376084,0.24094505719,,,,4.8,0.0940250900312,0.407089012669,4.8,-0.0321345810225,-1.20308329843,2.4,0.677216022261,0.273319135726,2.4,-0.839675494324,-0.231114241477,2.4,0.891449425937,0.111882364201,2.4,0.36657758693,-1.20840834802
4.82,0.629013506434,0.876843349062,,,,4.82,0.395737133542,0.699017722155,4.82,0.648056475649,-0.0160041153982,4.82,0.356461009535,-0.031922847477,4.82,-0.197570376084,0.244896464712,,,,4.82,0.0940250900312,0.405208510869,4.82,-0.207686953479,-1.20068508309,2.41,0.648056475649,0.266692773237,2.41,-0.849196978932,-0.222669879111,2.41,0.911087487941,0.102869679631,2.41,0.376099071538,-1.21212173131
4.84,0.667694537653,0.863876268621,,,,4.84,0.327301462923,0.69178733619,4.84,0.667694537653,-0.0291616255313,4.84,0.385620556146,-0.0393436631338,4.84,-0.197570376084,0.248847872234,,,,4.84,0.0845036054234,0.403423223914,4.84,-0.41180377976,-1.19449017576,2.42,0.629013506434,0.260307423326,2.42,-0.829558916928,-0.214276099631,2.42,0.911087487941,0.0937588047518,2.42,0.36657758693,-1.2158351146
4.86,0.677216022261,0.850427163022,,,,4.86,0.259460885092,0.68591971271,4.86,0.677216022261,-0.0426107311304,4.86,0.463577711373,-0.047835645809,4.86,-0.197570376084,0.252799279755,,,,4.86,0.0743870280276,0.401834317579,4.86,-0.606399121432,-1.18430814674,2.43,0.60937544443,0.254115478572,2.43,-0.829558916928,-0.205980510462,2.43,0.900970910545,0.0846985127594,2.43,0.356461009535,-1.21945030758
4.88,0.696854084264,0.836686461956,,,,4.88,0.152344183254,0.681801662026,4.88,0.677216022261,-0.0561550515756,4.88,0.512375319988,-0.0575951761226,4.88,-0.188048891476,0.256655472431,,,,4.88,0.0648655434197,0.400441791865,4.88,-0.800399370317,-1.17024016183,2.44,0.589737382426,0.248119914438,2.44,-0.810515947713,-0.197780136139,2.44,0.900970910545,0.0756888036539,2.44,0.346939524927,-1.22296731026
4.9,0.706375568872,0.822654165425,,,,4.9,-0.0130916118069,0.680409136312,4.9,0.706375568872,-0.069990967487,4.9,0.521896804596,-0.0679378973684,4.9,-0.178527406868,0.260321235414,,,,4.9,0.0553440588119,0.399239695843,4.9,-0.897994587547,-1.15325622225,2.45,0.570694413211,0.24231775546,2.45,-0.800399370317,-0.189725559549,2.45,0.891449425937,0.0667267019715,2.45,0.327301462923,-1.22633851519
4.92,0.716492146268,0.808425488274,,,,4.92,-0.139251282861,0.681932565259,4.92,0.706375568872,-0.0841184788644,4.92,0.463577711373,-0.0777926425281,4.92,-0.178527406868,0.263891783552,,,,4.92,0.0452274814161,0.39823398044,4.92,-1.034270836,-1.13393356801,2.46,0.551056351207,0.236709001638,2.46,-0.810515947713,-0.181670982958,2.46,0.881927941329,0.0578598151352,2.46,0.327301462923,-1.22961152982
4.94,0.716492146268,0.794095645348,,,,4.94,-0.27552753131,0.6860803534,4.94,0.706375568872,-0.0982459902418,4.94,0.40525861815,-0.0864810058233,4.94,-0.178527406868,0.267462331689,,,,4.94,0.0261845122004,0.397519860504,4.94,-1.11163289844,-1.11247453067,2.47,0.521896804596,0.231344235858,2.47,-0.810515947713,-0.173565823481,2.47,0.871811363933,0.0490911186088,2.47,0.298141916312,-1.23273874672
4.96,0.735535115484,0.779575372731,,,,4.96,-0.353484686537,0.692370475579,4.96,0.716492146268,-0.112474667393,4.96,0.376099071538,-0.0942945827202,4.96,-0.178527406868,0.271032879827,,,,4.96,-0.00297503441107,0.397287765726,4.96,-1.2770686935,-1.08858751475,2.48,0.502258742592,0.226223458123,2.48,-0.839675494324,-0.165314866271,2.48,0.891449425937,0.0402748146595,2.48,0.278503854308,-1.23562197557
4.98,0.726013630876,0.764959885267,,,,4.98,-0.41180377976,0.700023360242,4.98,0.726013630876,-0.126899725165,4.98,0.376099071538,-0.101816564151,4.98,-0.178527406868,0.274603427964,,,,4.98,-0.0226130964147,0.397543647035,4.98,-1.36454733333,-1.06217135448,2.49,0.47309919598,0.22134666843,2.49,-0.810515947713,-0.157063909061,2.49,0.900970910545,0.0313127129771,2.49,0.259460885092,-1.23831179927
5,0.716492146268,0.750534827496,,,,5,-0.537963450814,0.709521032547,5,0.735535115484,-0.141515212628,5,0.385620556146,-0.109433760428,5,-0.168410829472,0.278072810327,,,,5,-0.0226130964147,0.397995908963,5,-1.48118551978,-1.03371402595,2.5,0.454056226765,0.216710891316,2.5,-0.820037432321,-0.148911142161,2.5,0.900970910545,0.0223030038716,2.5,0.239822823089,-1.24080821781
5.02,0.735535115484,0.736014554878,,,,5.02,-0.683761183871,0.721738278894,5.02,0.735535115484,-0.156225914938,5.02,0.40525861815,-0.117342552171,5.02,-0.168410829472,0.281441026917,,,,5.02,-0.0226130964147,0.398448170891,5.02,-1.5496211904,-1.00340595885,2.51,0.443939649369,0.212220911935,2.51,-0.820037432321,-0.140710767838,2.51,0.900970910545,0.0132932947662,2.51,0.239822823089,-1.24320644604
5.04,0.735535115484,0.721303852569,,,,5.04,-0.829558916928,0.736871479902,5.04,0.706375568872,-0.170645021782,5.04,0.443939649369,-0.125834534846,5.04,-0.149367860256,0.284618813814,,,,5.04,-0.0517726430262,0.399192028286,5.04,-1.61746176823,-0.971735129261,2.52,0.434418164761,0.207829122865,2.52,-0.810515947713,-0.132558000937,2.52,0.891449425937,0.00433119308378,2.52,0.239822823089,-1.24560467427
5.06,0.726013630876,0.706688365105,,,,5.06,-0.927154134159,0.754438610413,5.06,0.687332599657,-0.184582103467,5.06,0.424896680153,-0.134522898141,5.06,-0.139251282861,0.287505005245,,,,5.06,-0.100570251641,0.400715457232,5.06,-1.71446189267,-0.938415892652,2.53,0.424896680153,0.20353254864,2.53,-0.800399370317,-0.124503424347,2.53,0.900970910545,-0.00463090859863,2.53,0.220184761085,-1.24790471219
5.08,0.696854084264,0.692459687954,,,,5.08,-1.0241542586,0.773951694341,5.08,0.638534991042,-0.197840779374,5.08,0.40525861815,-0.142824451124,5.08,-0.120208313645,0.29009960121,,,,5.08,-0.149367860256,0.403214838351,5.08,-1.7924190479,-0.903347083247,2.54,0.414780102758,0.199334164726,2.54,-0.800399370317,-0.116499430644,2.54,0.920608972549,-0.0137388080141,2.54,0.210663276477,-1.25005895238
5.1,0.667694537653,0.678814201734,,,,5.1,-1.12174947583,0.795410731685,5.1,0.589737382426,-0.210123503108,5.1,0.385620556146,-0.150733242867,5.1,-0.110091736249,0.292402601709,,,,5.1,-0.188048891476,0.406589005869,5.1,-1.89001426513,-0.866522750117,2.55,0.395737133542,0.195281578544,2.55,-0.800399370317,-0.108495436941,2.55,0.911087487941,-0.0228972903165,2.55,0.201141791869,-1.25211797772
5.12,0.629013506434,0.665847121293,,,,5.12,-1.034270836,0.816970934803,5.12,0.551056351207,-0.221531440445,5.12,0.36657758693,-0.158255224298,5.12,-0.0910487670335,0.294414006742,,,,5.12,-0.226729922695,0.41073679401,5.12,-1.95785484296,-0.828044059036,2.56,0.395737133542,0.191324207209,2.56,-0.820037432321,-0.100393252928,2.56,0.900970910545,-0.031957582309,2.56,0.181503729866,-1.25403120533
5.14,0.599853959822,0.653558446631,,,,5.14,-0.985473227382,0.837168375437,5.14,0.512375319988,-0.232165757157,5.14,0.356461009535,-0.165485610263,5.14,-0.0910487670335,0.296234982083,,,,5.14,-0.255889469307,0.41556298793,5.14,-2.00665245157,-0.78839898609,2.57,0.395737133542,0.187366835873,2.57,-0.820037432321,-0.0921928786045,2.57,0.900970910545,-0.0409672914144,2.57,0.152344183254,-1.2557004449
5.16,0.570694413211,0.641852962901,,,,5.16,-1.05331380521,0.857556245763,5.16,0.483215773376,-0.24212166809,5.16,0.395737133542,-0.173007591693,5.16,-0.0910487670335,0.298055957423,,,,5.16,-0.266006046702,0.42078194309,5.16,-1.97749290496,-0.748557532525,2.58,0.40525861815,0.183361857115,2.58,-0.839675494324,-0.0838943139713,2.58,0.891449425937,-0.0499293930968,2.58,0.123184636643,-1.257078089
5.18,0.560577835815,0.63054024041,,,,5.18,-1.05331380521,0.878622521867,5.18,0.414780102758,-0.251101626852,5.18,0.40525861815,-0.18101754921,5.18,-0.100570251641,0.29997214761,,,,5.18,-0.285049015918,0.426292493717,5.18,-1.98701438957,-0.70891245958,2.59,0.395737133542,0.179356878356,2.59,-0.839675494324,-0.0754975590281,2.59,0.891449425937,-0.0588438873562,2.59,0.0940250900312,-1.25816413763
5.2,0.570694413211,0.61922751792,,,,5.2,-1.11163289844,0.900271988904,5.2,0.376099071538,-0.259010418595,5.2,0.424896680153,-0.189319102193,5.2,-0.110091736249,0.302078767489,,,,5.2,-0.285049015918,0.431993474035,5.2,-1.85073814112,-0.670534934273,2.6,0.395737133542,0.175399507021,2.6,-0.849196978932,-0.0670531966618,2.6,0.881927941329,-0.0677107741925,2.6,0.0845036054234,-1.25905678111
5.22,0.570694413211,0.607813629656,,,,5.22,-1.10211141383,0.922409432026,5.22,0.327301462923,-0.266044423939,5.22,0.434418164761,-0.197912250642,5.22,-0.120208313645,0.304381767988,,,,5.22,-0.285049015918,0.437694454353,5.22,-1.75373801668,-0.634490172695,2.61,0.395737133542,0.171442135685,2.61,-0.878356525543,-0.0584154291394,2.61,0.891449425937,-0.0765776610289,2.61,0.0553440588119,-1.25975601943
5.24,0.560577835815,0.596500907166,,,,5.24,-1.13127096044,0.944743255769,5.24,0.298141916312,-0.272298857732,5.24,0.424896680153,-0.206505399092,5.24,-0.110091736249,0.306684768487,,,,5.24,-0.304687077922,0.443591815292,5.24,-1.74362143928,-0.599516578136,2.62,0.376099071538,0.16758295466,2.62,-0.887878010151,-0.0495842564609,2.62,0.881927941329,-0.0854445478652,2.62,0.0648655434197,-1.26035706744
5.26,0.570694413211,0.585188184675,,,,5.26,-1.16995199166,0.96775548529,5.26,0.278503854308,-0.278065315438,5.26,0.424896680153,-0.215003332695,5.26,-0.0714107050298,0.3084997929,,,,5.26,-0.324325139925,0.44988193747,5.26,-1.73409995467,-0.564739364196,2.63,0.36657758693,0.163869571368,2.63,-0.897994587547,-0.0406548934725,2.63,0.871811363933,-0.0942132443915,2.63,0.0452274814161,-1.26090753256
5.28,0.560577835815,0.573875462185,,,,5.28,-1.18959005366,0.991350905743,5.28,0.220184761085,-0.283052201592,5.28,0.414780102758,-0.223400100524,5.28,-0.0422511584184,0.309636411534,,,,5.28,-0.324325139925,0.456368440269,5.28,-1.74362143928,-0.529962150256,2.64,0.327301462923,0.160400176118,2.64,-0.927154134159,-0.0315291498639,2.64,0.891449425937,-0.103029548341,2.64,0.0452274814161,-1.26135980738
5.3,0.551056351207,0.562759120315,,,,5.3,-1.19911153827,1.01523792166,5.3,0.181503729866,-0.287069086501,5.3,0.414780102758,-0.231695702579,5.3,-0.0130916118069,0.310189839236,,,,5.3,-0.324325139925,0.462854943067,5.3,-1.8019405325,-0.494506530539,2.65,0.307663400919,0.157225351799,2.65,-0.907516072155,-0.0223557988324,2.65,0.881927941329,-0.111896435177,2.65,0.0357059968082,-1.26176447477
5.32,0.521896804596,0.552029588757,,,,5.32,-1.21874960027,1.03941653305,5.32,0.132706121251,-0.290211185012,5.32,0.414780102758,-0.239991304634,5.32,0.0160679348046,0.310160076006,,,,5.32,-0.333846624533,0.469436660712,5.32,-1.89953574973,-0.457491767716,2.66,0.278503854308,0.154294515523,2.66,-0.936675618766,-0.0131348403778,2.66,0.891449425937,-0.120763322014,2.66,0.0357059968082,-1.26212153474
5.34,0.483215773376,0.541978462977,,,,5.34,-1.24790914688,1.06408312052,5.34,0.0845036054234,-0.292383282279,5.34,0.434418164761,-0.248483287309,5.34,0.0160679348046,0.30983871731,,,,5.34,-0.333846624533,0.476113593202,5.34,-1.92869529634,-0.419209457255,2.67,0.239822823089,0.151702882136,2.67,-0.946197103374,-0.00372047676705,2.67,0.891449425937,-0.129677816273,2.67,0.00654645019677,-1.26233279697
